1680686620.00
64.000000
-0.00
-0.00
-0.00
-0.00
-0.00
-0.00
-0.00
-0.00
-0.00
-0.00
0.00
0.01
0.01
-0.00
-0.03
-0.05
-0.05
0.00
0.13
0.36
0.66
1.01
1.37
1.72
2.06
2.40
2.79
3.24
3.80
4.42
5.06
5.66
6.20
6.68
7.15
7.68
8.31
9.14
10.09
11.04
11.88
12.56
13.14
13.76
14.65
15.96
17.91
20.32
22.90
25.38
27.58
29.57
31.68
34.32
37.81
42.54
48.15
54.10
59.83
64.97
69.58
74.14
79.34
85.71
93.76
103.00
112.62
121.73
129.77
136.75
143.30
150.75
157.77
166.64
177.95
191.79
206.97
220.57
228.25
225.36
208.53
176.87
132.76
80.05
23.07
-34.94
-92.44
-149.16
-205.23
-260.37
-313.74
-363.87
-409.83
-450.91
-486.50
-515.74
-537.23
-549.22
-549.96
-538.37
-514.21
-478.67
-433.88
-382.45
-327.02
-269.84
-212.63
-156.66
-102.95
-52.37
-5.90
35.58
71.43
101.35
125.50
144.38
158.69
169.15
176.37
180.75
182.57
182.07
179.51
175.23
169.65
163.18
156.15
148.81
141.30
133.69
126.02
118.33
110.69
103.16
95.80
88.68
81.83
75.25
68.95
62.95
57.25
51.86
46.78
42.03
37.59
33.45
29.61
26.07
22.81
19.83
17.11
14.67
12.48
10.54
8.83
7.35
6.07
4.97
4.05
3.27
2.62
2.09
1.65
1.30
1.01
0.79
0.61
0.48
0.37
0.29
0.22
0.18
0.14
0.11
0.09
0.08
0.07
0.06
0.05
0.05
0.04
0.04
0.04
0.03
0.03
0.03
0.03
0.03
0.03
0.03
0.02
0.02
0.02
0.02
0.02
0.02
0.02
0.03
0.04
0.06
0.08
0.11
0.15
0.20
0.26
0.32
0.40
0.48
0.57
0.65
0.74
0.83
0.93
1.03
1.13
1.23
1.34
1.46
1.59
1.73
1.89
2.06
2.25
2.46
2.70
2.97
3.27
3.60
3.98
4.39
4.84
5.34
5.89
6.50
7.17
7.93
8.77
9.68
10.64
11.61
12.58
13.57
14.60
15.74
17.03
18.52
20.13
21.85
23.62
25.37
27.16
29.02
31.02
33.25
35.73
38.30
40.81
43.02
44.69
45.59
45.60
44.68
42.79
39.90
35.71
30.03
22.72
13.81
3.65
-7.10
-17.61
-27.08
-34.45
-40.07
-44.37
-47.97
-51.34
-54.58
-57.34
-58.95
-59.14
-57.54
-54.78
-51.91
-50.14
-50.27
-52.27
-55.28
-57.94
-59.15
-58.39
-56.21
-53.69
-52.03
-52.14
-54.57
-59.61
-67.01
-75.44
-81.99
-82.66
-73.60
-53.16
-23.28
10.72
42.00
65.03
77.64
81.30
79.61
76.19
73.05
70.42
67.72
64.73
62.04
60.69
61.38
63.90
67.19
69.84
70.41
68.18
63.22
56.28
48.27
39.78
30.71
20.30
7.77
-6.88
-22.25
-35.68
-44.12
-45.45
-39.46
-28.13
-14.96
-3.66
3.07
4.28
0.72
-5.80
-13.23
-20.04
-25.52
-29.72
-33.22
-36.62
-40.20
-43.89
-47.34
-50.33
-52.92
-55.37
-57.94
-60.63
-63.07
-64.79
-65.44
-65.12
-64.41
-64.02
-64.32
-65.13
-65.74
-65.19
-62.66
-58.09
-51.12
-41.85
-30.65
-18.05
-4.70
8.69
21.45
32.97
42.71
50.29
55.32
57.68
57.65
55.89
53.35
50.94
49.22
48.29
47.91
47.56
46.84
45.53
43.56
41.03
38.02
34.68
31.25
28.01
25.19
22.91
21.17
19.79
18.57
17.34
16.11
15.08
14.69
15.25
16.93
19.54
22.62
25.67
28.36
30.62
32.70
34.94
37.56
40.58
43.85
47.14
50.30
53.27
56.07
58.74
61.24
63.51
65.56
67.57
69.83
72.61
75.99
79.80
83.54
86.90
89.37
90.58
90.34
88.72
86.03
82.79
79.62
77.03
75.25
73.94
72.38
69.61
64.86
57.77
48.46
37.36
24.98
11.66
-2.39
-16.84
-30.94
-43.56
-53.37
-59.45
-61.78
-61.53
-60.86
-62.24
-67.58
-77.60
-91.56
-107.67
-123.80
-138.19
-150.00
-159.26
-166.70
-173.24
-179.68
-186.63
-194.40
-203.08
-212.18
-220.29
-225.01
-223.29
-212.26
-190.43
-158.48
-119.31
-77.33
-37.13
-2.45
24.51
43.02
53.39
56.58
53.88
46.78
36.80
25.22
12.76
-0.49
-14.89
-30.86
-48.32
-66.44
-83.52
-97.29
-105.49
-106.48
-99.90
-86.82
-69.51
-50.80
-33.12
-17.77
-4.88
6.31
16.77
27.04
37.20
47.04
56.43
65.38
73.81
81.13
86.25
87.84
85.11
78.41
69.30
60.06
52.77
48.56
47.29
47.95
49.33
50.58
51.32
51.58
51.38
50.64
49.22
47.11
44.54
41.96
39.82
38.40
37.63
37.06
35.97
33.53
29.08
22.33
13.64
4.02
-5.14
-12.57
-17.59
-20.47
-22.30
-24.47
-28.07
-33.43
-40.06
-47.00
-53.25
-58.23
-61.80
-64.19
-65.73
-66.59
-66.78
-66.20
-64.67
-61.96
-57.78
-51.74
-43.36
-32.28
-18.41
-2.17
15.46
33.08
49.26
62.97
73.93
82.60
89.83
96.34
102.28
107.07
109.67
109.14
105.13
98.12
89.24
79.84
70.97
63.06
55.96
49.11
41.91
34.04
25.49
16.59
7.78
-0.54
-8.10
-14.71
-20.21
-24.43
-27.22
-28.56
-28.63
-27.81
-26.58
-25.31
-24.17
-23.07
-21.79
-20.06
-17.74
-14.88
-11.67
-8.40
-5.29
-2.39
0.45
3.56
7.25
11.72
16.87
22.44
27.98
33.06
37.30
40.45
42.45
43.46
43.84
44.00
44.22
44.41
44.10
42.72
39.91
35.86
31.41
27.67
25.52
25.26
26.41
28.04
29.30
29.82
29.86
30.13
31.24
33.36
36.08
38.65
40.34
40.82
40.25
39.06
37.69
36.36
35.13
33.94
32.78
31.74
30.93
30.60
31.21
33.60
39.04
48.89
64.10
84.73
109.65
136.79
163.70
188.29
209.48
227.47
243.44
258.79
274.17
288.87
300.82
307.31
306.17
296.76
280.27
259.07
235.74
212.01
188.51
165.08
141.49
118.05
95.49
74.50
55.20
36.91
18.39
-1.57
-23.63
-47.83
-73.71
-100.56
-127.52
-153.46
-176.87
-196.04
-209.36
-215.77
-214.79
-206.47
-191.07
-168.98
-140.94
-108.40
-73.84
-40.41
-11.29
11.35
26.98
36.82
43.22
48.63
54.67
61.60
68.35
73.03
73.84
69.70
60.51
47.04
30.45
11.86
-7.64
-27.02
-45.07
-60.62
-72.86
-81.86
-88.60
-94.64
-101.42
-109.54
-118.74
-128.16
-136.96
-144.67
-151.14
-156.15
-159.13
-159.23
-155.75
-148.69
-139.00
-128.35
-118.42
-110.29
-103.87
-98.08
-91.45
-82.82
-72.11
-60.51
-50.11
-43.18
-41.03
-43.20
-47.34
-50.13
-48.64
-41.72
-30.52
-18.04
-7.95
-3.29
-5.59
-14.73
-29.67
-49.06
-71.89
-97.88
-127.26
-160.47
-198.28
-241.71
-291.62
-347.87
-407.90
-465.70
-512.43
-539.05
-540.35
-518.14
-481.66
-444.16
-417.23
-405.73
-406.23
-409.78
-407.13
-393.42
-369.54
-340.14
-309.80
-280.32
-250.54
-218.63
-184.63
-151.47
-123.93
-105.91
-98.08
-97.34
-98.36
-95.88
-87.26
-73.32
-57.45
-43.56
-34.12
-29.12
-26.53
-23.57
-18.30
-10.36
-0.86
8.53
16.58
23.08
29.01
35.99
45.72
59.29
76.70
96.61
116.44
133.04
143.66
147.05
144.01
137.05
129.35
123.46
120.56
120.53
122.83
127.29
134.37
144.67
158.01
172.91
186.91
197.69
204.25
207.64
210.48
215.97
226.67
243.86
267.39
295.87
326.76
356.53
380.98
396.04
398.97
389.28
369.12
342.43
313.55
285.75
260.51
237.83
217.09
197.96
180.64
165.51
152.59
141.36
130.90
120.40
109.55
98.58
88.12
78.75
70.75
63.97
57.95
52.19
46.34
40.37
34.53
29.19
24.71
21.23
18.63
16.62
14.82
12.90
10.74
8.42
6.21
4.39
3.18
2.56
2.37
2.38
2.36
2.23
2.04
1.94
2.10
2.60
3.49
4.70
6.09
7.45
8.58
9.29
9.49
9.18
8.50
7.69
7.03
6.71
6.75
6.95
6.83
5.81
3.40
-0.51
-5.49
-10.61
-14.85
-17.49
-18.55
-18.88
-19.87
-22.82
-28.34
-35.97
-44.28
-51.46
-56.14
-57.97
-57.83
-57.50
-59.04
-64.14
-73.62
-87.22
-103.42
-119.49
-131.72
-136.35
-130.79
-114.84
-90.99
-63.57
-37.14
-14.75
2.63
15.57
24.66
29.22
27.06
15.80
-5.17
-33.23
-62.43
-85.15
-94.78
-87.96
-65.81
-33.67
-0.01
25.68
35.60
26.12
-0.34
-35.31
-66.44
-81.57
-72.98
-39.99
11.44
71.58
130.57
181.10
218.88
241.70
248.22
237.79
211.21
171.50
123.54
72.56
22.43
-24.83
-68.41
-107.37
-139.56
-161.97
-172.12
-169.64
-156.76
-137.58
-116.55
-97.04
-80.57
-67.19
-56.27
-47.20
-39.71
-33.57
-28.38
-23.45
-18.08
-11.93
-5.18
1.50
7.29
11.69
14.83
17.46
20.59
25.01
30.77
37.11
42.66
46.07
46.55
44.20
39.90
34.85
30.06
25.97
22.38
18.72
14.41
9.21
3.24
-3.14
-9.60
-15.97
-22.33
-28.79
-35.42
-42.08
-48.67
-55.21
-61.95
-69.25
-77.29
-85.79
-94.02
-101.19
-106.88
-111.70
-117.19
-125.37
-137.95
-155.46
-176.94
-200.45
-223.72
-244.88
-262.57
-275.67
-282.83
-282.72
-274.83
-260.14
-241.20
-221.18
-202.41
-185.34
-168.64
-150.42
-129.80
-107.65
-86.10
-67.01
-50.55
-34.97
-17.74
2.77
26.11
49.69
70.08
84.38
91.22
91.05
85.51
76.72
66.46
55.83
45.35
35.56
27.33
22.32
22.98
31.53
48.51
71.60
96.14
117.16
132.35
143.13
154.06
170.03
192.94
220.17
245.65
263.33
270.69
269.97
265.58
261.09
257.30
252.61
245.36
235.96
227.99
223.81
226.24
235.62
248.94
261.54
269.39
270.52
264.47
251.71
233.90
213.48
192.26
171.20
150.30
128.67
104.95
78.97
47.30
7.28
-41.98
-99.50
-161.77
-222.66
-274.82
-307.98
-317.89
-307.85
-286.42
-263.59
-246.92
-239.05
-237.96
-239.33
-239.35
-237.19
-233.96
-230.40
-225.94
-218.97
-207.76
-191.55
-172.39
-151.47
-131.23
-113.76
-99.70
-88.45
-78.88
-70.10
-61.74
-54.37
-48.88
-46.75
-48.84
-54.91
-63.88
-74.31
-85.07
-95.30
-104.83
-113.75
-122.62
-131.74
-140.81
-149.06
-155.33
-160.28
-163.94
-166.38
-167.49
-167.32
-165.66
-162.14
-156.25
-147.39
-135.01
-118.34
-96.88
-70.47
-39.55
-5.21
30.92
66.83
100.55
130.51
156.04
177.09
194.08
207.43
217.32
223.51
225.57
223.27
217.07
208.35
199.12
191.44
186.76
185.44
186.74
189.31
191.80
193.58
195.00
197.23
201.92
210.90
225.80
247.46
275.01
304.89
330.83
345.10
341.00
315.63
271.45
215.61
157.32
104.54
61.55
28.44
2.53
-19.54
-40.14
-60.03
-78.85
-95.79
-110.11
-121.21
-128.56
-131.75
-130.55
-125.13
-116.33
-105.83
-95.95
-89.10
-86.82
-88.83
-92.79
-94.99
-91.88
-81.70
-65.26
-45.55
-26.25
-10.16
1.78
10.28
16.78
22.41
27.48
31.64
34.41
35.57
35.13
33.18
29.76
24.97
19.21
13.35
8.65
6.35
7.25
11.38
17.98
25.77
33.36
39.61
43.79
45.72
45.53
43.64
40.56
36.77
32.69
28.63
24.83
21.40
18.36
15.59
12.93
10.20
7.30
4.29
1.35
-1.28
-3.32
-4.52
-4.56
-3.07
0.32
5.84
13.47
22.76
32.99
43.32
53.03
61.74
69.29
75.62
80.61
84.04
85.74
85.77
84.57
82.77
80.91
79.07
76.71
72.83
66.45
57.05
44.95
31.25
17.55
5.46
-3.77
-9.40
-11.19
-9.24
-3.86
4.37
14.64
25.98
37.43
48.34
58.54
68.33
78.28
88.96
100.68
113.40
126.87
140.78
154.82
168.68
181.90
193.83
203.72
211.00
215.54
217.57
217.35
214.62
208.21
196.23
176.81
149.31
115.15
77.87
42.14
12.24
-9.25
-22.06
-27.86
-29.36
-29.51
-30.90
-35.43
-44.13
-56.84
-72.10
-87.63
-101.10
-111.24
-118.38
-124.32
-131.35
-141.15
-154.10
-169.38
-185.59
-201.38
-215.84
-228.47
-238.97
-247.13
-252.79
-255.83
-256.10
-253.38
-247.48
-238.55
-227.29
-215.00
-203.12
-192.53
-183.13
-173.90
-163.55
-151.31
-137.30
-122.25
-106.79
-90.82
-73.53
-54.14
-32.79
-11.05
8.42
23.03
31.51
34.58
34.75
35.23
38.78
46.81
59.23
74.93
92.27
109.51
124.91
136.86
143.95
145.39
141.10
131.67
117.97
100.70
80.32
57.25
32.39
7.33
-15.85
-35.29
-50.10
-60.62
-68.04
-73.62
-77.82
-80.03
-78.77
-72.57
-60.86
-44.60
-26.22
-9.01
3.68
9.25
6.22
-5.36
-23.75
-45.63
-66.64
-82.56
-90.99
-92.66
-91.40
-92.38
-99.45
-112.58
-127.69
-138.48
-139.41
-128.44
-107.68
-82.10
-57.00
-35.88
-19.32
-6.06
5.73
17.32
29.09
40.93
53.22
67.50
86.24
112.31
146.55
186.39
226.14
258.83
279.08
285.41
280.53
269.41
257.25
246.18
235.10
221.71
204.84
186.03
169.36
159.85
155.65
154.20
151.37
143.30
128.45
107.85
84.23
60.38
38.36
19.25
4.25
-6.38
-13.11
-16.80
-18.89
-21.12
-25.10
-31.81
-41.47
-53.27
-65.80
-79.76
-96.15
-116.14
-140.78
-171.00
-207.47
-250.26
-295.10
-336.70
-368.49
-383.44
-376.92
-349.29
-306.58
-258.60
-215.31
-182.98
-162.97
-152.48
-146.81
-142.15
-136.91
-131.21
-125.39
-119.02
-111.41
-101.21
-88.43
-74.45
-61.40
-51.55
-46.17
-45.13
-47.15
-50.49
-53.81
-56.74
-59.73
-63.30
-67.98
-73.70
-79.76
-84.94
-87.96
-88.03
-85.22
-80.32
-74.15
-67.74
-61.86
-56.83
-52.44
-47.98
-42.46
-34.63
-26.14
-17.67
-9.79
-2.97
2.52
6.66
9.76
12.38
15.19
18.69
23.60
30.15
38.17
47.33
57.32
68.11
79.88
93.02
107.93
125.38
146.01
170.22
197.70
226.99
255.29
278.86
294.06
298.61
292.65
278.34
259.00
237.78
216.79
196.94
178.41
161.34
146.10
133.16
122.54
113.49
104.77
95.08
83.78
71.09
58.03
45.90
35.73
27.80
21.67
16.39
11.02
5.06
-1.31
-7.45
-12.61
-16.41
-19.00
-20.95
-22.85
-24.94
-27.00
-28.54
-29.21
-29.03
-28.35
-27.66
-27.27
-27.10
-26.84
-26.16
-24.92
-23.24
-21.40
-19.59
-17.83
-15.95
-13.75
-11.15
-8.31
-5.52
-3.13
-1.38
-0.28
0.32
0.76
1.33
2.19
3.32
4.58
5.75
6.68
7.23
7.31
6.87
5.92
4.61
3.27
2.29
1.91
2.10
2.52
2.67
2.18
0.95
-0.79
-2.57
-4.05
-5.07
-5.74
-6.29
-6.95
-7.77
-8.68
-9.52
-10.13
-10.46
-10.55
-10.55
-10.67
-11.11
-11.92
-12.95
-13.90
-14.38
-14.07
-12.90
-11.08
-9.02
-7.19
-5.89
-5.19
-4.93
-4.91
-4.94
-5.07
-5.43
-6.16
-7.26
-8.55
-9.73
-10.53
-10.86
-10.81
-10.66
-10.65
-10.92
-11.47
-12.13
-12.73
-13.07
-13.02
-12.53
-11.60
-10.26
-8.63
-6.86
-5.13
-3.63
-2.51
-1.88
-1.78
-2.21
-3.11
-4.36
-5.80
-7.24
-8.49
-9.41
-9.99
-10.32
-10.55
-10.88
-11.46
-12.33
-13.40
-14.52
-15.41
-15.85
-15.61
-14.61
-12.92
-10.76
-8.46
-6.37
-4.76
-3.80
-3.52
-3.91
-4.88
-6.31
-8.02
-9.73
-11.08
-11.79
-11.75
-11.12
-10.27
-9.68
-9.75
-10.61
-12.09
-13.82
-15.29
-16.14
-16.15
-15.38
-13.98
-12.18
-10.19
-8.13
-6.07
-3.98
-1.83
0.37
2.48
4.32
5.71
6.63
7.24
7.85
8.85
10.50
12.74
15.14
17.06
17.77
16.76
13.95
9.85
5.65
2.84
2.83
6.48
13.72
23.59
34.53
44.95
53.66
60.35
65.21
68.66
71.06
72.50
72.88
72.00
69.84
66.51
62.77
59.69
58.54
60.44
65.85
74.21
84.01
93.05
98.97
100.24
95.95
86.04
71.27
53.15
33.88
16.22
3.00
-5.91
-10.61
-11.98
-11.41
-10.19
-9.26
-8.91
-8.93
-8.86
-8.24
-6.33
-2.85
1.94
7.41
12.45
16.21
18.49
19.68
20.29
20.95
21.45
20.78
17.38
9.82
-3.21
-21.72
-44.41
-69.62
-95.57
-121.35
-147.06
-171.12
-193.68
-215.42
-237.02
-258.79
-279.87
-297.28
-306.11
-301.07
-278.90
-241.03
-193.59
-145.59
-105.64
-78.82
-65.25
-61.13
-61.60
-62.93
-63.89
-64.61
-65.14
-64.64
-61.48
-54.69
-43.85
-30.12
-15.55
-2.37
8.31
16.76
24.27
32.36
41.96
53.01
64.24
73.82
80.12
82.35
80.70
76.16
69.96
63.04
55.68
47.48
37.69
25.99
12.60
-1.55
-15.11
-26.70
-35.47
-41.34
-45.04
-47.73
-50.18
-52.58
-54.44
-54.66
-51.94
-45.28
-34.21
-18.74
-1.17
17.12
35.46
53.94
73.12
93.87
117.12
143.68
173.92
207.16
241.45
273.10
297.29
309.62
307.72
292.26
266.72
236.05
204.81
176.10
150.94
129.04
109.84
93.20
79.39
68.51
59.96
52.41
44.38
34.86
23.72
11.88
0.82
-8.22
-14.83
-19.62
-23.95
-29.13
-35.90
-44.05
-52.57
-60.09
-65.51
-68.41
-69.18
-68.78
-68.31
-68.62
-70.02
-72.31
-74.94
-77.30
-78.94
-79.70
-79.58
-78.67
-76.93
-74.28
-70.65
-66.20
-61.35
-56.63
-52.52
-49.15
-46.32
-43.60
-40.56
-37.04
-33.16
-29.22
-25.50
-22.12
-19.06
-16.24
-13.72
-11.64
-10.23
-9.63
-9.83
-10.69
-12.01
-13.61
-15.25
-16.67
-17.57
-17.69
-16.91
-15.31
-13.10
-10.57
-7.99
-5.63
-3.83
-3.00
-3.56
-5.67
-9.11
-13.21
-16.99
-19.51
-20.17
-18.86
-15.93
-12.06
-7.95
-4.19
-1.16
1.01
2.37
3.17
3.79
4.65
6.14
8.41
11.30
14.32
16.83
18.26
18.34
17.18
15.22
13.05
11.21
10.04
9.60
9.76
10.19
10.52
10.38
9.57
8.13
6.44
5.05
4.57
5.33
7.23
9.77
12.25
14.03
14.89
15.04
15.07
15.60
16.96
19.01
21.16
22.65
22.86
21.59
19.10
15.92
12.57
9.34
6.23
3.11
-0.04
-3.04
-5.43
-6.71
-6.55
-4.97
-2.35
0.68
3.40
5.22
5.79
5.07
3.28
0.76
-2.10
-4.95
-7.51
-9.56
-10.94
-11.61
-11.67
-11.39
-11.09
-11.10
-11.64
-12.82
-14.61
-16.89
-19.52
-22.31
-25.12
-27.86
-30.54
-33.21
-35.96
-38.76
-41.46
-43.87
-45.92
-47.73
-49.58
-51.70
-54.00
-56.07
-57.17
-56.59
-53.86
-48.93
-42.16
-34.07
-25.30
-16.40
-7.85
-0.13
6.33
11.18
14.28
15.69
15.72
14.79
13.35
11.78
10.35
9.21
8.38
7.82
7.40
6.96
6.29
5.20
3.53
1.30
-1.30
-3.87
-5.91
-6.96
-6.79
-5.50
-3.44
-1.08
1.15
2.98
4.24
4.83
4.59
3.31
0.90
-2.56
-6.67
-10.74
-14.03
-15.88
-15.95
-14.25
-11.14
-7.23
-3.28
-0.06
1.74
1.78
0.15
-2.46
-4.95
-6.10
-4.97
-1.27
4.53
11.47
18.40
24.46
29.21
32.58
34.62
35.30
34.51
32.25
28.87
25.17
22.25
21.16
22.38
25.70
30.15
34.46
37.57
39.02
39.08
38.57
38.49
39.65
42.45
46.80
52.18
57.87
63.16
67.60
71.18
74.29
77.50
81.27
85.55
89.62
92.22
91.94
87.66
79.09
66.91
52.71
38.64
26.79
18.63
14.62
14.18
15.99
18.46
20.26
20.65
19.45
16.97
13.71
10.16
6.65
3.29
0.05
-3.22
-6.62
-10.13
-13.64
-17.04
-20.39
-23.97
-28.14
-33.10
-38.72
-44.49
-49.74
-53.90
-56.70
-58.18
-58.60
-58.22
-57.17
-55.47
-53.05
-49.96
-46.36
-42.50
-38.70
-35.20
-32.11
-29.37
-26.79
-24.15
-21.36
-18.49
-15.79
-13.58
-12.10
-11.41
-11.36
-11.63
-11.88
-11.84
-11.42
-10.72
-9.87
-8.96
-7.91
-6.47
-4.34
-1.40
2.22
6.21
10.22
14.13
18.10
22.54
27.89
34.33
41.72
49.53
57.03
63.41
68.01
70.44
70.68
69.10
66.37
63.27
60.46
58.22
56.39
54.46
51.71
47.53
41.51
33.60
24.09
13.51
2.43
-8.71
-19.87
-31.38
-43.77
-57.44
-72.26
-87.57
-102.27
-115.27
-125.84
-133.75
-139.24
-142.81
-145.02
-146.47
-147.77
-149.42
-151.70
-154.55
-157.55
-160.18
-162.02
-162.91
-162.75
-161.25
-157.75
-151.36
-141.43
-128.14
-112.63
-96.68
-81.87
-68.76
-56.68
-44.07
-29.37
-11.85
8.09
29.15
49.63
67.76
81.79
90.04
91.27
85.36
73.98
60.59
49.59
44.80
47.98
58.35
73.11
88.83
102.73
113.35
120.36
124.01
124.63
122.43
117.78
111.36
104.17
97.32
91.65
87.61
85.31
84.55
85.03
86.41
88.34
90.49
92.56
94.36
95.67
96.21
95.55
93.18
88.76
82.22
73.93
64.57
54.85
45.30
36.07
27.03
18.02
9.06
0.48
-7.24
-13.53
-17.96
-20.32
-20.65
-19.27
-16.70
-13.57
-10.49
-7.87
-5.89
-4.51
-3.57
-2.91
-2.51
-2.39
-2.61
-3.14
-3.84
-4.53
-5.06
-5.33
-5.29
-4.94
-4.22
-3.15
-1.79
-0.36
0.82
1.39
1.06
-0.20
-2.10
-4.06
-5.38
-5.50
-4.13
-1.42
2.19
6.15
9.97
13.30
15.95
17.75
18.53
18.17
16.66
14.19
11.10
7.78
4.56
1.64
-0.94
-3.22
-5.27
-7.12
-8.77
-10.19
-11.33
-12.11
-12.43
-12.06
-10.75
-8.28
-4.59
0.03
4.94
9.19
11.77
11.92
9.37
4.47
-1.99
-9.04
-15.80
-21.67
-26.40
-30.00
-32.62
-34.46
-35.68
-36.35
-36.50
-36.17
-35.40
-34.34
-33.21
-32.21
-31.49
-30.99
-30.53
-29.82
-28.70
-27.20
-25.58
-24.20
-23.31
-22.93
-22.85
-22.70
-22.15
-21.06
-19.57
-18.03
-16.77
-16.05
-15.89
-16.09
-16.35
-16.39
-16.11
-15.60
-15.12
-14.93
-15.22
-15.91
-16.73
-17.28
-17.21
-16.38
-14.88
-13.02
-11.16
-9.58
-8.44
-7.77
-7.49
-7.52
-7.73
-7.94
-7.93
-7.53
-6.69
-5.58
-4.48
-3.70
-3.37
-3.42
-3.60
-3.70
-3.58
-3.28
-2.96
-2.79
-2.88
-3.26
-3.81
-4.41
-4.91
-5.24
-5.40
-5.47
-5.55
-5.65
-5.80
-5.88
-5.82
-5.53
-5.00
-4.29
-3.52
-2.90
-2.66
-2.94
-3.73
-4.72
-5.41
-5.29
-4.03
-1.66
1.43
4.68
7.49
9.43
10.21
9.67
7.78
4.65
0.58
-3.99
-8.60
-12.92
-16.87
-20.57
-24.25
-28.15
-32.40
-37.10
-42.22
-47.63
-52.94
-57.49
-60.37
-60.80
-58.52
-54.02
-48.54
-43.59
-40.41
-39.52
-40.64
-43.08
-46.21
-49.75
-53.76
-58.23
-62.61
-65.75
-66.11
-62.35
-53.89
-41.20
-25.74
-9.53
5.35
17.23
25.15
28.92
29.17
27.38
25.94
27.67
35.01
48.87
67.70
87.54
103.14
109.86
105.49
90.97
69.82
46.34
23.91
3.95
-13.87
-30.64
-47.01
-62.68
-76.55
-87.44
-94.76
-98.83
-100.74
-101.85
-103.16
-104.90
-106.44
-106.68
-104.59
-99.86
-93.07
-85.53
-78.70
-73.58
-70.28
-68.13
-66.08
-63.18
-58.96
-53.43
-46.89
-39.53
-31.31
-22.06
-11.77
-0.78
10.22
20.36
29.03
36.13
42.07
47.49
52.88
58.22
62.92
66.09
67.02
65.53
62.06
57.38
52.16
46.69
40.79
34.14
26.61
18.62
11.02
4.94
1.26
0.35
1.95
5.29
9.41
13.44
16.75
19.01
20.09
19.92
18.50
15.91
12.41
8.56
5.21
3.14
2.84
4.23
6.53
8.58
9.23
7.78
4.22
-0.87
-6.50
-11.64
-15.40
-17.23
-16.96
-14.67
-10.77
-5.81
-0.45
4.67
9.01
12.20
14.00
14.30
13.12
10.62
7.19
3.37
-0.18
-2.94
-4.67
-5.44
-5.65
-5.77
-6.32
-7.64
-9.91
-13.08
-16.82
-20.56
-23.51
-24.86
-24.03
-20.90
-15.81
-9.53
-2.91
3.29
8.53
12.48
14.86
15.48
14.22
11.17
6.78
1.76
-3.01
-6.77
-9.06
-9.89
-9.71
-9.31
-9.51
-10.98
-13.98
-18.24
-23.00
-27.12
-29.50
-29.26
-26.10
-20.31
-12.75
-4.50
3.40
10.16
15.33
18.68
20.12
19.65
17.39
13.71
9.31
5.06
1.82
0.21
0.29
1.59
3.20
4.06
3.27
0.40
-4.41
-10.36
-16.22
-20.62
-22.42
-21.04
-16.57
-9.71
-1.51
6.99
14.86
21.47
26.38
29.30
30.11
28.93
26.12
22.33
18.31
14.80
12.32
11.01
10.66
10.80
10.83
10.23
8.65
5.96
2.27
-2.00
-6.16
-9.25
-10.26
-8.40
-3.45
4.03
12.89
21.67
29.12
34.52
37.73
38.95
38.55
36.80
34.01
30.53
26.88
23.62
21.16
19.64
18.88
18.45
17.91
16.87
15.09
12.50
9.17
5.35
1.52
-1.68
-3.49
-3.25
-0.57
4.45
11.29
19.06
26.75
33.43
38.39
41.25
41.88
40.45
37.31
32.95
28.00
23.11
18.83
15.53
13.29
11.90
10.93
9.85
8.20
5.64
2.10
-2.26
-7.03
-11.55
-14.98
-16.46
-15.32
-11.31
-4.71
3.70
12.87
21.72
29.42
35.52
39.99
43.09
45.18
46.59
47.51
48.01
48.17
48.12
48.21
48.91
50.68
53.74
57.91
62.51
66.60
69.30
70.18
69.56
68.48
68.42
70.89
77.03
87.34
101.50
118.17
134.87
148.03
153.47
147.38
127.53
94.27
50.62
1.54
-47.52
-92.19
-129.91
-159.88
-182.33
-197.64
-205.94
-207.21
-201.73
-190.40
-174.59
-155.79
-135.01
-112.63
-88.49
-62.53
-35.25
-7.91
17.77
40.31
59.13
74.88
89.14
103.56
118.83
134.05
146.82
154.10
153.45
143.98
126.60
103.44
76.82
48.40
19.00
-10.98
-40.94
-69.60
-95.11
-115.56
-129.59
-136.74
-137.45
-132.67
-123.60
-111.40
-97.16
-81.91
-66.59
-52.01
-38.84
-27.58
-18.60
-12.07
-7.97
-5.96
-5.37
-5.36
-5.15
-4.24
-2.56
-0.39
1.84
3.70
4.89
5.26
4.74
3.33
1.13
-1.60
-4.40
-6.66
-7.73
-7.13
-4.71
-0.70
4.30
9.49
14.15
17.81
20.37
22.06
23.20
24.00
24.38
24.10
22.89
20.76
18.00
15.08
12.45
10.32
8.64
7.17
5.70
4.14
2.49
0.79
-1.03
-3.11
-5.52
-8.06
-10.21
-11.26
-10.60
-8.00
-3.78
1.31
6.31
10.43
13.23
14.69
15.06
14.67
13.79
12.56
11.07
9.44
7.92
6.77
6.22
6.28
6.75
7.31
7.73
7.95
8.10
8.29
8.48
8.45
7.88
6.78
5.59
5.20
6.58
10.39
16.66
24.75
33.72
42.64
50.95
58.47
65.30
71.61
77.43
82.68
87.16
90.66
92.95
93.75
92.64
89.10
82.71
73.34
61.46
48.16
34.98
23.40
14.45
8.31
4.40
1.87
0.08
-0.93
-0.53
2.09
7.35
14.91
23.76
32.59
40.36
46.57
51.26
54.61
56.72
57.43
56.65
54.66
52.32
50.89
51.51
54.67
59.80
65.41
69.39
69.60
64.30
52.38
33.37
7.39
-24.88
-62.03
-101.77
-140.95
-175.85
-202.93
-219.78
-225.77
-222.25
-212.08
-198.65
-184.91
-172.85
-163.45
-157.13
-154.01
-153.96
-156.37
-159.99
-163.05
-163.77
-160.91
-154.09
-143.69
-130.52
-115.38
-98.99
-82.00
-65.13
-49.13
-34.55
-21.56
-9.86
1.19
12.31
24.08
36.77
50.29
64.17
77.66
89.81
99.75
106.91
111.17
112.74
111.96
109.14
104.46
98.20
90.90
83.42
76.72
71.60
68.33
66.66
65.96
65.50
64.78
63.51
61.72
59.47
56.81
53.68
49.97
45.57
40.59
35.50
31.03
28.01
26.97
27.81
29.75
31.63
32.33
31.22
28.27
23.89
18.59
12.83
7.05
1.83
-1.97
-3.51
-2.38
1.00
5.40
9.18
11.00
10.36
7.65
3.86
-0.11
-3.80
-7.32
-11.04
-15.25
-19.89
-24.49
-28.41
-31.01
-31.94
-31.21
-29.25
-26.72
-24.32
-22.39
-20.83
-19.19
-16.91
-13.80
-10.14
-6.58
-3.86
-2.34
-1.86
-1.91
-1.87
-1.31
-0.11
1.60
3.53
5.32
6.54
6.73
5.46
2.53
-1.84
-6.94
-11.66
-14.75
-15.25
-12.79
-7.77
-1.37
4.79
9.12
10.70
9.91
8.74
10.38
18.25
34.53
58.89
88.09
116.69
138.77
149.87
148.43
135.96
116.10
93.05
70.17
49.38
31.34
16.08
3.58
-5.98
-12.47
-16.03
-17.35
-17.54
-17.87
-19.32
-22.32
-26.73
-32.04
-37.71
-43.38
-48.99
-54.74
-60.90
-67.51
-74.30
-80.66
-85.87
-89.35
-90.88
-90.70
-89.38
-87.55
-85.65
-83.85
-82.08
-80.25
-78.41
-76.80
-75.60
-74.69
-73.45
-70.93
-66.24
-59.11
-50.10
-40.45
-31.49
-23.99
-17.77
-11.81
-4.91
3.73
13.94
24.58
33.93
40.24
42.27
39.67
33.15
24.25
15.03
7.37
2.41
0.15
-0.54
-1.54
-4.77
-11.48
-21.83
-34.83
-48.71
-61.48
-71.44
-77.49
-79.28
-77.02
-71.35
-63.18
-53.53
-43.50
-34.15
-26.37
-20.80
-17.67
-16.78
-17.51
-18.89
-19.74
-18.99
-15.96
-10.63
-3.65
3.83
10.66
15.98
19.47
21.18
21.33
20.06
17.47
13.76
9.50
5.70
3.64
4.52
9.07
17.25
28.17
40.32
52.01
61.77
68.74
72.74
74.09
73.51
71.88
70.26
69.81
71.50
75.70
81.83
88.48
93.98
97.25
98.38
98.55
99.35
101.79
105.68
109.64
111.61
109.74
102.94
91.18
75.52
57.98
41.31
28.68
22.88
25.34
35.19
48.97
61.32
66.31
59.23
37.91
3.33
-40.44
-86.75
-127.32
-153.71
-159.52
-142.73
-107.32
-62.74
-21.06
7.36
17.67
11.70
-3.77
-20.92
-34.30
-42.34
-46.25
-47.80
-47.63
-45.06
-39.33
-30.88
-21.73
-14.61
-11.53
-12.69
-16.50
-20.34
-21.89
-20.12
-15.64
-10.26
-6.04
-4.35
-5.26
-7.60
-9.63
-9.93
-8.05
-4.64
-1.07
1.33
1.88
0.75
-1.24
-3.08
-4.07
-4.04
-3.27
-2.30
-1.56
-1.30
-1.45
-1.83
-2.23
-2.55
-2.76
-2.92
-3.07
-3.24
-3.47
-3.83
-4.32
-4.91
-5.41
-5.61
-5.35
-4.64
-3.77
-3.13
-3.08
-3.78
-5.05
-6.52
-7.80
-8.59
-8.83
-8.58
-7.93
-6.92
-5.59
-4.00
-2.36
-0.95
-0.01
0.35
0.26
-0.05
-0.32
-0.42
-0.29
0.05
0.57
1.30
2.23
3.33
4.51
5.65
6.65
7.45
8.05
8.43
8.60
8.52
8.19
7.65
7.00
6.37
5.85
5.49
5.27
5.13
5.03
4.96
4.90
4.79
4.50
3.82
2.56
0.61
-2.00
-5.14
-8.56
-11.97
-15.05
-17.48
-19.00
-19.45
-18.75
-16.91
-13.97
-10.04
-5.25
0.12
5.64
10.79
15.16
18.50
20.85
22.38
23.27
23.60
23.31
22.31
20.54
17.98
14.69
10.74
6.26
1.54
-3.03
-7.05
-10.19
-12.36
-13.82
-14.94
-16.14
-17.64
-19.40
-21.16
-22.54
-23.18
-22.86
-21.52
-19.21
-16.18
-12.74
-9.29
-6.22
-3.85
-2.38
-1.82
-2.03
-2.68
-3.39
-3.72
-3.35
-2.17
-0.23
2.13
4.46
6.31
7.32
7.43
6.76
5.58
4.12
2.48
0.66
-1.31
-3.24
-4.85
-5.86
-6.12
-5.75
-5.11
-4.58
-4.40
-4.58
-4.96
-5.34
-5.67
-6.04
-6.65
-7.66
-9.09
-10.86
-12.76
-14.62
-16.33
-17.89
-19.32
-20.64
-21.88
-23.00
-23.95
-24.66
-25.05
-25.01
-24.44
-23.27
-21.57
-19.42
-16.98
-14.40
-11.79
-9.24
-6.78
-4.37
-1.86
0.94
4.23
8.07
12.30
16.52
20.22
22.93
24.43
24.74
24.12
22.93
21.51
20.14
19.02
18.30
18.06
18.28
18.80
19.33
19.52
19.08
17.89
16.07
13.87
11.60
9.43
7.45
5.58
3.73
1.86
-0.00
-1.77
-3.39
-4.82
-6.12
-7.34
-8.52
-9.63
-10.62
-11.38
-11.77
-11.72
-11.19
-10.25
-9.06
-7.75
-6.40
-5.04
-3.64
-2.11
-0.39
1.57
3.77
6.17
8.64
11.06
13.30
15.28
16.94
18.23
19.07
19.36
18.98
17.94
16.36
14.46
12.47
10.50
8.53
6.47
4.19
1.71
-0.86
-3.31
-5.42
-7.08
-8.28
-9.14
-9.84
-10.52
-11.20
-11.79
-12.12
-12.08
-11.64
-10.94
-10.18
-9.53
-9.03
-8.61
-8.18
-7.65
-6.97
-6.13
-5.09
-3.83
-2.37
-0.79
0.77
2.20
3.44
4.50
5.41
6.22
6.92
7.50
7.98
8.41
8.81
9.12
9.19
8.86
8.14
7.23
6.57
6.61
7.61
9.36
11.26
12.39
11.92
9.40
5.08
-0.16
-4.99
-8.08
-8.58
-6.43
-2.56
1.43
3.78
3.32
0.11
-4.54
-8.51
-9.88
-8.01
-4.05
-0.57
-0.49
-5.65
-15.85
-28.68
-40.22
-46.14
-42.79
-28.10
-2.29
31.51
67.18
96.53
111.41
106.42
81.38
41.90
-2.16
-40.10
-63.96
-70.75
-62.31
-43.26
-18.41
9.03
37.60
66.64
94.97
120.43
140.41
153.04
158.10
157.24
153.02
147.55
141.44
133.61
122.27
106.13
85.45
62.21
39.27
19.30
3.72
-7.55
-15.81
-22.70
-29.57
-36.93
-44.56
-51.79
-57.89
-62.52
-65.80
-68.30
-70.85
-74.20
-78.72
-84.28
-90.35
-96.13
-100.93
-104.29
-106.13
-106.56
-105.78
-103.98
-101.19
-97.46
-92.87
-87.71
-82.38
-77.40
-73.17
-69.91
-67.62
-66.15
-65.36
-65.14
-65.57
-66.77
-68.90
-72.02
-76.07
-80.86
-86.07
-91.35
-96.37
-101.00
-105.28
-109.40
-113.45
-117.30
-120.36
-121.73
-120.43
-115.73
-107.39
-95.73
-81.42
-65.22
-47.78
-29.62
-11.25
6.62
23.12
37.32
48.51
56.38
60.97
62.60
61.57
58.02
52.06
43.88
33.90
22.81
11.47
0.74
-8.72
-16.56
-22.84
-28.16
-33.57
-40.34
-49.58
-61.69
-76.14
-91.58
-106.29
-118.67
-127.70
-132.86
-134.19
-132.20
-127.84
-122.51
-117.78
-114.88
-114.04
-114.17
-113.05
-108.07
-97.22
-79.84
-56.85
-30.32
-2.86
23.13
45.84
64.20
77.76
86.58
91.13
92.24
91.09
89.16
87.81
87.95
89.70
92.35
94.70
95.78
95.34
94.14
93.79
96.02
102.06
112.08
125.10
139.27
152.37
162.44
168.02
168.40
163.47
153.70
139.99
123.54
105.76
88.11
71.82
57.71
46.07
36.64
28.76
21.58
14.35
6.60
-1.81
-10.75
-20.04
-29.51
-39.06
-48.44
-57.07
-63.97
-67.90
-67.84
-63.34
-54.73
-42.96
-29.27
-14.83
-0.62
12.54
23.93
32.97
39.39
43.36
45.47
46.56
47.35
48.26
49.31
50.25
50.74
50.51
49.41
47.42
44.56
40.89
36.42
31.12
24.96
17.90
10.08
1.86
-6.16
-13.19
-18.46
-21.48
-22.25
-21.20
-19.06
-16.59
-14.34
-12.55
-11.25
-10.32
-9.71
-9.32
-9.07
-8.74
-8.04
-6.66
-4.40
-1.26
2.59
6.79
11.01
14.93
18.35
21.14
23.22
24.50
24.92
24.55
23.78
23.27
23.89
26.44
31.32
38.33
46.70
55.36
63.27
69.74
74.39
77.10
77.80
76.40
72.84
67.33
60.41
52.99
46.12
40.68
36.97
34.72
33.08
31.06
27.91
23.34
17.58
11.26
5.21
0.20
-3.14
-4.42
-3.57
-1.01
2.32
4.99
5.43
2.41
-4.46
-14.49
-26.15
-37.66
-47.68
-55.78
-62.40
-68.42
-74.49
-80.63
-86.16
-90.08
-91.62
-90.55
-87.31
-82.65
-77.40
-72.23
-67.60
-63.85
-61.24
-59.76
-59.02
-58.20
-56.20
-52.01
-45.18
-35.99
-25.43
-14.87
-5.56
1.63
6.38
8.84
9.45
8.77
7.32
5.50
3.65
2.02
0.81
0.13
-0.06
0.06
0.26
0.26
-0.09
-0.80
-1.82
-3.10
-4.63
-6.42
-8.35
-10.08
-11.10
-10.79
-8.76
-4.96
0.29
6.45
12.94
19.25
24.98
29.75
33.19
35.04
35.23
33.96
31.69
28.96
26.25
23.84
21.78
19.94
18.11
16.07
13.72
10.95
7.73
4.09
0.10
-4.07
-8.14
-11.67
-14.10
-14.86
-13.56
-10.13
-4.97
1.12
7.13
12.15
15.58
17.30
17.63
17.10
16.22
15.28
14.37
13.44
12.49
11.67
11.25
11.45
12.30
13.66
15.29
17.10
19.30
22.24
26.25
31.31
37.05
43.02
48.99
55.25
62.47
71.21
81.24
91.33
99.41
103.36
101.93
95.20
84.60
72.22
60.06
49.43
40.82
34.19
29.36
26.22
24.67
24.45
25.01
25.63
25.56
24.47
22.63
20.79
19.87
20.50
22.66
25.65
28.28
29.22
27.55
23.04
16.19
8.02
-0.38
-8.20
-14.98
-20.74
-25.81
-30.57
-35.26
-39.84
-44.08
-47.66
-50.35
-51.53
-50.77
-47.87
-42.91
-36.33
-28.87
-21.38
-14.69
-9.44
-4.93
-0.19
5.70
13.30
22.59
33.08
44.14
55.25
66.09
78.07
92.43
109.86
130.38
153.30
177.64
202.47
227.22
251.56
277.42
306.50
339.64
376.18
413.77
448.99
478.50
500.28
500.71
471.56
410.04
320.36
212.92
100.64
-5.52
-99.06
-177.86
-242.49
-292.30
-326.77
-345.74
-350.28
-343.20
-328.94
-312.56
-298.41
-288.93
-282.75
-276.79
-267.66
-253.51
-234.76
-214.37
-196.42
-184.57
-180.77
-184.04
-192.59
-203.96
-214.87
-220.57
-215.67
-195.77
-160.26
-114.08
-66.75
-29.40
-9.84
-10.20
-24.07
-40.59
-50.49
-50.40
-42.96
-33.28
-25.21
-19.29
-13.78
-6.79
1.44
8.57
12.02
10.68
5.76
0.00
-3.60
-3.65
-0.59
3.50
6.03
5.40
1.71
-3.49
-7.92
-9.78
-8.76
-5.78
-2.84
-2.42
-6.72
-16.59
-30.67
-45.13
-54.49
-54.18
-42.46
-21.77
1.74
20.54
29.00
25.54
12.28
-5.21
-22.08
-35.86
-46.37
-54.56
-60.85
-64.38
-63.54
-57.13
-45.14
-29.36
-12.40
3.50
17.29
29.27
40.71
52.95
65.78
79.15
91.56
100.88
105.67
105.65
101.84
96.31
91.27
88.16
87.29
88.20
88.26
85.86
80.41
72.72
64.55
57.86
54.23
54.79
59.89
68.98
80.45
90.91
95.63
90.01
71.75
42.42
7.56
-25.47
-50.45
-64.43
-68.68
-67.02
-63.48
-60.30
-57.51
-53.98
-48.85
-42.54
-36.26
-31.45
-28.61
-27.04
-25.40
-22.23
-16.90
-9.85
-2.30
4.64
10.13
14.37
18.44
23.60
30.59
39.28
49.02
59.20
69.85
81.17
93.43
106.26
118.41
128.11
133.76
134.48
129.98
122.99
115.23
107.77
100.94
94.47
88.03
81.47
74.90
68.59
62.72
56.99
51.13
45.04
38.66
32.28
26.39
21.63
18.61
17.68
18.46
20.14
21.71
22.31
21.52
19.44
16.49
13.23
10.14
7.43
5.18
3.32
1.64
-0.16
-2.34
-4.93
-7.72
-10.34
-12.61
-14.67
-16.87
-19.51
-22.57
-25.53
-27.71
-28.71
-28.77
-28.71
-29.51
-31.72
-35.10
-38.73
-41.42
-42.32
-41.42
-39.54
-38.07
-38.37
-41.25
-46.65
-53.69
-60.99
-67.19
-71.50
-73.72
-74.23
-73.65
-72.46
-71.07
-70.03
-70.18
-72.28
-76.06
-79.37
-78.43
-69.26
-49.88
-21.97
9.19
36.70
54.90
61.67
58.71
50.03
39.56
29.43
19.76
9.84
-0.59
-10.72
-19.15
-25.03
-28.84
-32.48
-38.60
-49.58
-66.40
-88.08
-111.85
-134.04
-151.29
-161.57
-164.74
-162.20
-156.03
-148.03
-139.17
-129.60
-119.13
-107.77
-95.92
-84.37
-73.93
-65.17
-58.25
-52.92
-48.60
-44.54
-40.05
-34.75
-28.95
-23.58
-20.06
-19.75
-23.32
-30.55
-40.34
-51.23
-61.98
-71.97
-81.13
-89.68
-97.66
-104.68
-110.00
-112.87
-112.91
-110.36
-105.94
-100.55
-94.94
-89.49
-84.26
-79.24
-74.42
-69.86
-65.49
-61.05
-56.10
-50.15
-42.90
-34.34
-24.78
-14.68
-4.52
5.25
14.22
22.11
28.74
34.17
38.70
42.76
46.73
50.80
54.89
58.67
61.72
63.66
64.25
63.40
61.08
57.33
52.22
45.79
38.19
29.71
20.80
12.13
4.43
-1.60
-5.56
-7.39
-7.37
-6.02
-3.90
-1.55
0.61
2.06
2.23
0.46
-3.78
-10.62
-19.68
-29.98
-40.22
-49.15
-55.77
-59.59
-60.49
-58.66
-54.43
-48.26
-40.71
-32.46
-24.22
-16.57
-9.80
-3.83
1.71
7.36
13.49
20.20
27.18
33.87
39.65
44.09
47.10
48.86
49.76
50.08
50.02
49.62
48.93
48.09
47.39
47.10
47.40
48.25
49.44
50.75
51.98
53.11
54.12
54.95
55.43
55.32
54.41
52.68
50.43
48.24
46.83
46.92
48.86
52.55
57.35
62.27
66.22
68.36
68.31
66.19
62.57
58.14
53.42
48.64
43.62
37.94
31.24
23.42
14.79
5.91
-2.70
-10.80
-18.60
-26.53
-35.02
-44.19
-53.86
-63.71
-73.41
-82.76
-91.45
-99.01
-104.71
-107.76
-107.68
-104.62
-99.32
-92.84
-86.18
-79.93
-74.26
-69.09
-64.33
-60.08
-56.57
-54.01
-52.43
-51.52
-50.79
-49.69
-47.85
-45.29
-42.39
-39.62
-37.51
-36.25
-35.79
-35.84
-35.83
-34.86
-31.58
-24.58
-13.11
2.15
18.89
33.73
43.66
47.32
45.57
40.85
35.91
32.35
30.22
28.48
26.08
22.78
19.30
16.63
15.35
15.23
15.46
15.30
14.55
13.54
12.81
12.67
12.76
12.18
10.01
5.83
0.11
-5.83
-10.31
-11.92
-10.05
-5.09
1.89
9.51
16.66
22.69
27.39
30.76
32.72
33.09
31.61
28.34
23.86
19.20
15.55
13.73
13.83
15.17
16.60
17.10
16.05
13.45
9.71
5.34
0.88
-2.91
-4.90
-3.76
1.44
10.44
21.59
32.29
40.22
44.52
46.13
47.19
49.80
54.84
61.69
68.88
75.15
80.20
84.67
89.44
94.84
100.23
104.15
105.00
101.56
93.45
81.02
65.35
47.54
28.53
8.84
-11.15
-30.87
-49.04
-63.65
-72.42
-73.59
-66.75
-53.11
-35.04
-15.07
5.00
24.68
44.44
65.06
86.89
109.37
131.29
151.31
168.58
183.12
195.88
208.64
223.76
243.69
270.31
304.00
342.89
382.65
417.33
441.03
449.93
443.64
425.09
399.06
370.01
340.44
310.49
278.97
244.92
208.72
172.09
137.12
105.04
75.61
47.39
18.74
-10.98
-41.00
-69.48
-94.49
-115.01
-131.48
-145.54
-159.37
-174.83
-192.93
-213.78
-236.78
-260.74
-283.97
-304.28
-319.08
-325.72
-322.12
-307.17
-280.80
-243.71
-196.90
-141.58
-79.40
-13.12
53.07
113.69
163.01
196.55
212.37
211.58
197.72
175.34
148.42
119.24
88.31
55.10
19.18
-18.93
-57.93
-96.22
-132.84
-168.16
-203.69
-241.51
-283.72
-332.00
-387.17
-448.57
-513.27
-575.89
-629.30
-666.49
-682.86
-677.84
-654.92
-620.03
-579.20
-536.73
-494.72
-453.79
-414.27
-376.81
-342.15
-310.32
-280.19
-249.74
-216.76
-179.79
-138.42
-93.33
-46.29
0.19
43.29
80.37
109.72
131.12
145.89
156.31
164.66
172.31
179.52
185.70
190.14
192.60
193.38
192.97
191.68
189.42
185.79
180.46
173.43
165.06
155.92
146.81
138.40
131.34
126.19
123.28
122.76
124.60
128.62
134.37
140.82
146.16
148.02
144.17
133.46
116.72
96.71
77.35
62.29
53.64
51.47
54.24
59.82
66.39
72.89
78.77
83.54
86.55
87.15
85.06
80.60
74.69
68.48
63.14
59.30
57.05
55.95
55.26
54.20
52.30
49.56
46.39
43.39
40.90
39.06
37.99
38.19
40.67
46.56
56.29
68.93
82.09
92.62
97.72
95.91
87.03
71.75
50.64
23.95
-8.00
-43.90
-80.91
-115.01
-142.12
-159.32
-165.53
-161.21
-147.68
-126.51
-99.52
-69.14
-38.75
-12.44
5.99
14.31
12.65
3.58
-8.79
-20.24
-27.61
-29.54
-26.43
-19.81
-11.60
-3.39
3.91
9.98
14.81
18.29
20.13
19.92
17.54
13.39
8.40
3.72
0.31
-1.41
-1.64
-1.05
-0.44
-0.49
-1.55
-3.62
-6.45
-9.70
-13.21
-16.94
-20.94
-25.08
-28.93
-31.70
-32.58
-31.05
-27.14
-21.46
-14.85
-8.07
-1.51
4.69
10.46
15.49
19.26
21.16
20.85
18.45
14.54
9.98
5.61
2.01
-0.61
-2.32
-3.43
-4.37
-5.51
-7.16
-9.35
-11.93
-14.60
-17.03
-18.99
-20.31
-20.85
-20.21
-17.92
-13.38
-6.24
3.44
15.13
28.07
41.51
54.59
66.16
74.55
77.86
74.70
65.09
50.93
35.49
22.23
13.39
9.28
8.46
8.89
9.02
8.38
7.36
6.50
5.83
4.76
2.50
-1.27
-6.06
-10.66
-13.64
-13.85
-11.07
-5.99
0.06
5.62
9.67
11.88
12.57
12.36
11.83
11.16
10.21
8.67
6.33
3.30
0.02
-2.91
-5.00
-6.02
-6.23
-6.20
-6.69
-8.36
-11.57
-16.27
-22.03
-28.21
-34.10
-38.95
-42.02
-42.64
-40.30
-34.84
-26.61
-16.48
-5.68
4.58
13.42
20.49
25.94
30.21
33.76
36.85
39.63
42.18
44.67
47.36
50.55
54.46
58.98
63.45
66.66
67.07
63.39
55.35
44.33
33.42
26.59
27.65
39.22
62.15
95.71
137.85
185.51
234.61
280.10
316.43
338.74
344.15
332.91
308.49
276.56
243.27
213.45
189.44
170.93
155.67
140.57
122.77
100.47
73.24
41.89
7.86
-27.23
-61.74
-93.91
-121.73
-142.97
-155.88
-159.84
-155.97
-146.75
-135.15
-123.47
-112.91
-103.71
-96.08
-91.09
-90.81
-97.77
-114.15
-141.13
-178.42
-224.02
-273.90
-321.99
-360.86
-383.32
-384.69
-364.56
-327.22
-280.21
-231.65
-187.65
-150.99
-121.51
-97.51
-77.31
-60.01
-45.45
-33.74
-24.84
-18.59
-14.86
-13.82
-15.84
-21.35
-30.24
-41.63
-53.84
-64.81
-72.80
-77.02
-77.90
-76.83
-75.50
-75.05
-75.60
-76.41
-76.37
-74.73
-71.42
-66.81
-61.36
-55.05
-47.26
-37.08
-23.56
-5.78
17.15
45.74
79.34
115.36
149.14
174.99
188.20
187.07
173.85
153.81
132.89
115.10
101.21
89.26
76.27
60.26
41.33
21.45
3.63
-9.68
-17.28
-19.20
-16.18
-9.20
0.81
13.01
26.31
39.79
52.18
62.19
69.02
72.90
75.01
76.99
80.18
85.10
92.37
101.51
111.04
119.23
125.13
129.23
133.36
139.79
149.96
165.24
184.74
205.79
225.37
241.59
253.78
261.59
263.86
258.45
245.30
225.04
199.32
170.72
142.44
117.09
96.12
79.84
55.78
19.77
-23.46
-63.35
-91.51
-105.73
-108.94
-105.49
-99.13
-92.45
-84.94
-76.07
-66.31
-57.11
-49.95
-46.02
-46.53
-52.02
-62.68
-76.83
-93.09
-110.82
-130.01
-146.52
-159.27
-168.18
-173.79
-177.06
-178.10
-176.99
-173.92
-169.01
-162.22
-154.11
-145.21
-136.23
-128.16
-121.48
-116.66
-114.35
-115.05
-118.34
-122.53
-123.83
-117.38
-99.53
-69.79
-31.89
7.23
40.24
62.39
72.87
74.65
72.22
69.14
66.68
64.35
61.16
56.99
52.81
49.92
49.15
50.34
52.37
53.74
53.29
50.83
47.04
43.14
40.22
38.80
38.75
39.52
40.61
41.85
43.19
44.22
43.78
40.19
31.83
18.12
0.43
-18.48
-35.34
-47.62
-54.37
-56.22
-54.83
-52.08
-49.44
-47.70
-47.26
-48.36
-51.13
-55.64
-61.79
-69.18
-77.22
-84.95
-91.09
-94.36
-93.81
-89.20
-81.20
-71.56
-61.47
-51.78
-42.48
-32.77
-21.68
-8.63
5.91
20.63
33.85
44.16
50.48
52.01
48.17
38.85
25.09
9.79
-2.64
-7.68
-2.77
11.03
29.12
45.29
54.58
55.49
50.23
43.09
37.54
34.47
32.03
27.38
19.10
8.49
-0.83
-4.69
-0.53
11.29
28.03
45.86
61.79
74.80
85.66
95.79
105.95
115.59
123.09
126.80
125.80
120.36
111.65
101.23
90.30
79.29
68.43
56.50
42.62
26.56
8.74
-9.89
-28.21
-45.23
-60.32
-73.39
-84.74
-94.82
-104.13
-113.06
-121.71
-129.80
-136.58
-141.04
-142.19
-139.53
-133.06
-123.56
-112.36
-100.98
-90.53
-81.38
-73.29
-65.66
-58.18
-50.98
-44.98
-41.56
-42.47
-49.25
-63.15
-84.68
-112.51
-143.04
-170.37
-187.96
-191.01
-178.60
-154.10
-123.96
-95.12
-72.20
-57.87
-51.86
-52.07
-56.07
-62.43
-70.05
-78.04
-85.28
-89.50
-89.00
-83.44
-74.20
-63.76
-55.39
-50.35
-48.56
-49.06
-48.60
-44.51
-35.78
-23.26
-8.81
4.60
17.06
30.04
45.29
67.26
99.17
141.52
191.95
246.97
301.75
356.51
413.53
474.53
543.53
621.55
704.69
785.24
854.61
903.49
930.58
938.99
906.25
821.60
688.89
526.28
357.97
222.34
119.54
41.43
-20.33
-72.72
-122.08
-170.52
-220.62
-276.10
-340.84
-420.15
-512.38
-611.52
-708.75
-790.28
-843.00
-859.37
-839.61
-791.03
-727.18
-658.40
-591.75
-530.83
-474.51
-420.47
-367.51
-315.56
-265.05
-217.38
-171.26
-125.47
-79.85
-34.81
7.96
46.81
81.79
115.10
150.28
192.80
245.73
308.33
374.30
431.49
467.37
474.50
452.77
409.19
356.15
304.07
259.91
223.83
188.63
146.10
91.61
24.95
-49.78
-122.99
-184.87
-223.70
-231.22
-207.96
-159.68
-95.60
-27.55
32.46
79.05
101.22
95.12
79.15
64.42
49.87
33.25
10.68
-29.24
-76.00
-125.10
-165.17
-184.88
-179.85
-149.25
-97.19
-31.42
32.93
86.26
123.17
147.80
166.41
179.07
184.08
178.72
173.35
169.40
170.69
177.72
188.84
198.63
182.88
134.04
58.07
-28.78
-109.90
-171.23
-209.70
-230.11
-241.22
-250.38
-255.08
-251.20
-235.32
-209.78
-179.85
-154.46
-141.51
-145.24
-165.17
-194.56
-226.37
-255.35
-283.05
-309.12
-333.00
-352.85
-365.80
-368.89
-359.08
-336.10
-301.82
-260.03
-213.58
-164.51
-113.63
-60.86
-6.11
50.56
107.46
161.79
210.14
250.05
279.93
299.27
308.58
308.79
301.09
286.29
265.09
238.28
207.28
173.75
139.52
106.37
75.64
47.94
23.23
0.95
-19.66
-39.16
-57.97
-76.22
-93.75
-110.21
-125.19
-138.23
-148.98
-157.17
-162.59
-165.23
-165.18
-162.60
-157.68
-150.71
-141.93
-131.68
-120.31
-108.27
-96.11
-84.50
-74.16
-65.81
-60.07
-57.41
-58.11
-62.15
-69.27
-78.98
-90.67
-103.57
-116.92
-129.50
-140.29
-148.69
-154.52
-158.01
-159.48
-159.17
-157.22
-153.73
-148.32
-140.75
-131.03
-119.50
-106.63
-92.77
-78.06
-62.52
-46.12
-27.75
-6.64
17.19
42.83
68.85
94.03
117.61
139.35
159.16
180.24
204.92
233.49
263.74
291.97
314.82
330.45
338.56
339.86
342.23
352.49
373.82
404.66
440.58
477.65
514.34
551.23
589.49
640.25
711.34
803.54
909.08
1015.27
1110.41
1187.55
1244.53
1282.10
1316.16
1360.32
1421.16
1495.58
1574.65
1650.38
1719.68
1783.85
1757.93
1588.86
1267.55
840.23
382.09
-44.07
-408.39
-708.13
-952.23
-1149.84
-1292.12
-1370.35
-1384.35
-1347.40
-1281.99
-1210.16
-1146.21
-1095.58
-1057.91
-1020.04
-971.43
-908.65
-836.60
-764.71
-701.03
-649.06
-608.30
-576.73
-545.88
-509.50
-465.62
-417.17
-369.74
-327.99
-293.79
-266.67
-245.24
-225.04
-202.89
-177.71
-150.85
-124.81
-101.66
-82.07
-65.64
-51.54
-37.99
-23.91
-9.17
5.27
17.95
27.65
33.76
36.29
35.94
33.50
29.73
25.10
19.67
13.17
5.14
-4.78
-16.65
-29.58
-42.49
-54.07
-63.27
-69.55
-72.89
-73.77
-72.71
-70.19
-65.67
-58.82
-49.70
-38.78
-27.13
-16.11
-7.11
-1.16
0.75
-1.28
-7.29
-16.22
-25.14
-29.55
-24.69
-8.24
20.60
52.94
82.79
105.82
121.62
133.12
143.70
154.33
161.96
161.68
149.99
128.52
102.49
78.35
60.38
49.08
45.17
47.91
56.85
71.40
90.17
108.95
121.81
123.71
113.32
93.89
71.10
50.45
34.69
23.53
14.56
5.43
-4.88
-16.30
-28.94
-44.82
-67.42
-100.19
-144.31
-196.68
-249.09
-290.04
-308.24
-296.64
-254.97
-189.43
-110.30
-28.84
45.06
103.93
142.98
160.34
157.10
137.43
107.78
74.67
42.32
11.69
-18.23
-47.47
-72.74
-88.04
-87.70
-70.52
-42.24
-14.18
1.30
-4.12
-31.56
-75.24
-125.79
-174.19
-214.06
-241.63
-254.18
-249.31
-225.76
-185.70
-136.36
-88.92
-54.32
-38.45
-39.15
-47.31
-51.94
-45.83
-28.88
-6.74
13.99
30.92
47.45
70.02
102.86
143.79
184.32
213.32
222.08
207.99
174.82
129.95
80.31
30.08
-19.56
-68.24
-115.27
-159.31
-198.95
-233.81
-265.05
-295.00
-325.78
-357.61
-386.60
-406.74
-412.69
-402.27
-376.85
-340.33
-297.43
-252.09
-206.62
-160.04
-111.00
-60.16
-10.33
35.38
75.50
110.38
141.47
170.31
200.51
234.93
273.88
315.24
356.42
395.89
432.97
467.19
481.61
463.39
412.95
343.98
271.78
205.31
147.52
98.36
56.76
21.40
-6.53
-25.99
-37.97
-45.72
-52.70
-60.99
-71.32
-83.58
-97.30
-109.96
-118.98
-123.55
-124.82
-124.88
-124.56
-124.07
-123.43
-122.68
-120.84
-116.77
-110.52
-103.43
-97.12
-92.65
-90.47
-90.60
-92.74
-95.89
-98.43
-99.41
-98.68
-96.46
-92.91
-87.91
-80.90
-70.49
-58.62
-45.36
-30.71
-15.05
0.91
16.22
29.89
41.17
49.79
56.04
61.27
66.80
73.57
81.92
91.67
102.23
113.07
123.95
135.04
147.28
161.74
179.49
201.48
228.04
258.20
289.25
316.73
335.42
341.26
332.57
310.76
279.89
245.08
210.70
179.40
151.85
127.68
106.48
88.17
72.94
60.84
51.42
43.74
36.84
30.03
23.19
16.74
11.30
7.24
4.47
2.38
0.14
-2.92
-7.03
-11.84
-16.64
-20.63
-23.30
-24.60
-24.93
-24.89
-24.99
-25.54
-26.51
-27.68
-28.78
-29.65
-30.27
-30.76
-31.27
-31.88
-32.52
-33.03
-33.23
-33.05
-32.60
-32.13
-31.94
-32.23
-33.03
-34.17
-35.36
-36.37
-37.02
-37.33
-37.34
-37.15
-36.83
-36.38
-35.83
-35.14
-34.33
-33.43
-32.55
-31.78
-31.25
-31.06
-31.26
-31.81
-32.61
-33.50
-34.24
-34.56
-34.21
-32.98
-30.84
-28.01
-24.88
-21.83
-19.20
-17.05
-15.24
-13.59
-11.95
-10.37
-8.98
-7.95
-7.26
-6.79
-6.35
-5.76
-5.03
-4.32
-3.85
-3.77
-4.13
-4.78
-5.57
-6.38
-7.19
-8.16
-9.44
-11.11
-13.06
-15.02
-16.53
-17.18
-16.68
-14.97
-12.30
-9.08
-5.82
-2.99
-0.95
0.05
-0.10
-1.40
-3.70
-6.69
-9.93
-12.94
-15.33
-16.93
-17.77
-17.99
-17.83
-17.38
-16.72
-15.89
-14.96
-14.08
-13.40
-13.06
-13.11
-13.55
-14.30
-15.18
-15.91
-16.07
-15.28
-13.29
-10.17
-6.28
-2.23
1.41
4.21
6.01
6.85
6.85
6.10
4.69
2.76
0.48
-1.86
-4.00
-5.76
-7.08
-8.02
-8.69
-9.21
-9.64
-10.01
-10.29
-10.41
-10.34
-10.07
-9.72
-9.45
-9.48
-9.91
-10.62
-11.23
-11.24
-10.32
-8.39
-5.78
-3.04
-0.78
0.63
1.15
0.98
0.45
-0.21
-0.85
-1.51
-2.19
-2.89
-3.51
-3.94
-4.09
-3.99
-3.73
-3.47
-3.36
-3.42
-3.62
-3.93
-4.28
-4.77
-5.49
-6.54
-7.87
-9.26
-10.29
-10.50
-9.55
-7.42
-4.38
-0.98
2.23
4.76
6.40
7.09
6.96
6.12
4.66
2.68
0.37
-1.98
-4.07
-5.61
-6.53
-6.94
-7.14
-7.40
-7.90
-8.67
-9.58
-10.53
-11.43
-12.29
-13.18
-14.16
-15.19
-16.11
-16.69
-16.62
-15.64
-13.65
-10.75
-7.31
-3.81
-0.73
1.63
3.19
4.03
4.27
4.06
3.48
2.69
1.93
1.46
1.43
1.83
2.45
3.00
3.32
3.31
3.05
2.64
2.12
1.44
0.57
-0.45
-1.55
-2.57
-3.42
-4.08
-4.55
-4.83
-4.92
-4.76
-4.23
-3.36
-2.25
-1.10
-0.14
0.46
0.63
0.40
-0.19
-1.01
-2.04
-3.17
-4.36
-5.49
-6.48
-7.29
-7.98
-8.67
-9.51
-10.62
-12.00
-13.54
-14.98
-16.08
-16.68
-16.81
-16.70
-16.69
-17.09
-18.02
-19.27
-20.39
-20.81
-20.07
-17.98
-14.75
-10.82
-6.74
-2.95
0.27
2.76
4.37
4.99
4.57
3.22
1.30
-0.69
-2.27
-3.09
-3.14
-2.64
-1.97
-1.38
-0.96
-0.62
-0.15
0.65
1.85
3.39
5.05
6.60
7.88
8.92
9.94
11.34
13.50
16.77
21.24
26.76
33.00
39.57
46.12
52.52
58.93
65.62
72.98
81.24
90.52
100.77
111.84
123.39
135.07
146.79
159.06
173.33
191.80
216.50
248.11
284.96
322.93
356.54
380.74
392.45
391.07
377.82
354.88
324.84
290.77
256.32
225.32
200.47
182.02
167.35
151.97
131.53
103.95
70.14
33.19
-3.38
-37.28
-68.00
-96.24
-122.98
-148.86
-174.07
-198.88
-223.96
-250.43
-279.46
-311.65
-346.23
-380.87
-412.05
-436.06
-450.34
-454.29
-449.33
-438.21
-423.69
-407.61
-390.57
-372.44
-353.02
-332.59
-311.81
-291.24
-270.89
-250.21
-228.49
-205.46
-181.62
-158.04
-136.08
-116.75
-100.44
-87.02
-76.08
-67.28
-60.41
-55.26
-51.42
-48.14
-44.40
-39.19
-31.86
-22.33
-11.17
0.51
11.38
20.18
26.01
28.53
27.97
25.04
20.87
16.77
14.04
13.67
16.05
20.79
26.84
32.83
37.54
40.34
41.28
40.85
39.63
38.06
36.35
34.71
33.60
33.63
35.32
38.67
43.11
47.60
51.14
53.18
53.78
53.46
52.80
52.17
51.63
51.00
50.08
48.78
47.17
45.48
44.12
43.62
44.56
47.38
52.12
58.31
64.99
71.04
75.50
77.88
78.23
76.93
74.51
71.43
68.00
64.42
60.85
57.39
54.09
50.95
47.83
44.64
41.30
37.91
34.64
31.68
29.10
26.83
24.66
22.36
19.89
17.40
15.16
13.44
12.35
11.77
11.52
11.46
11.67
12.43
14.10
16.84
20.59
24.96
29.49
33.76
37.59
41.01
44.23
47.48
50.90
54.54
58.37
62.37
66.58
71.20
76.46
82.63
89.80
97.83
106.28
114.40
121.16
125.33
125.74
121.57
112.71
99.96
84.88
69.30
54.83
42.33
32.01
23.67
17.09
12.21
8.99
7.06
5.60
3.50
-0.22
-5.87
-13.17
-21.54
-30.47
-39.81
-49.65
-60.04
-70.77
-81.59
-92.42
-103.62
-115.80
-129.28
-143.58
-157.24
-168.29
-174.96
-176.56
-173.61
-167.54
-159.94
-151.95
-143.96
-135.85
-127.38
-118.58
-109.86
-101.74
-94.55
-88.19
-82.11
-75.76
-68.83
-61.52
-54.42
-48.19
-43.19
-39.44
-36.73
-34.93
-34.22
-34.99
-37.38
-40.85
-44.02
-45.04
-42.21
-34.72
-23.03
-8.66
6.34
20.12
31.51
40.07
45.97
49.59
51.33
51.57
50.65
48.98
46.95
44.93
43.21
42.01
41.51
41.83
43.00
44.91
47.32
50.00
52.73
55.39
57.84
59.82
60.89
60.54
58.50
54.94
50.39
45.52
40.72
35.93
30.78
24.98
18.85
13.32
9.72
9.09
11.70
16.86
23.23
29.25
33.63
35.67
35.17
32.37
27.71
21.68
14.62
6.68
-2.28
-12.46
-23.84
-35.95
-47.74
-57.67
-64.11
-65.83
-62.41
-54.50
-43.66
-31.83
-20.75
-11.41
-3.98
1.91
6.70
10.46
12.90
13.62
12.60
10.48
8.44
7.87
9.79
14.71
22.48
32.41
43.30
53.47
60.87
63.64
60.73
52.49
40.87
28.95
19.78
15.37
15.91
20.03
25.59
30.70
34.32
36.37
37.22
37.03
35.50
31.92
25.61
16.37
4.66
-8.57
-22.15
-34.93
-45.97
-54.50
-59.86
-61.59
-59.59
-54.21
-46.36
-37.36
-28.70
-21.62
-16.88
-14.54
-14.12
-14.86
-16.00
-17.11
-18.17
-19.47
-21.38
-24.08
-27.32
-30.47
-32.70
-33.23
-31.72
-28.36
-23.81
-18.93
-14.55
-11.11
-8.71
-7.05
-5.76
-4.52
-3.15
-1.61
0.07
1.97
4.11
6.42
8.53
9.89
9.89
8.16
4.88
0.70
-3.35
-6.42
-8.13
-8.74
-8.93
-9.38
-10.51
-12.26
-14.25
-15.96
-16.99
-17.07
-16.09
-14.02
-10.97
-7.27
-3.38
0.14
2.89
4.72
5.81
6.58
7.48
8.92
11.09
13.95
17.16
20.13
22.09
22.43
20.92
17.91
14.31
11.21
9.51
9.40
10.28
10.88
9.77
5.79
-1.52
-11.82
-24.14
-37.07
-49.19
-59.15
-66.02
-69.25
-68.91
-65.44
-59.58
-51.95
-42.84
-32.25
-20.20
-7.13
5.86
17.10
24.99
28.61
28.11
24.70
20.28
16.78
15.58
17.22
21.29
26.75
32.23
36.51
38.69
38.26
35.14
29.45
21.55
12.12
2.14
-7.10
-14.40
-19.00
-21.00
-21.25
-21.00
-21.49
-23.34
-26.54
-30.61
-34.82
-38.63
-41.68
-43.79
-44.77
-44.39
-42.42
-38.80
-33.76
-27.92
-22.12
-17.25
-14.06
-13.10
-14.80
-19.45
-27.24
-38.06
-51.32
-65.85
-80.05
-92.19
-100.91
-105.50
-106.05
-103.18
-97.77
-90.62
-82.36
-73.56
-64.76
-56.51
-49.20
-42.83
-36.93
-30.71
-23.38
-14.60
-4.59
5.99
16.34
25.95
34.62
42.38
49.16
54.70
58.62
60.74
61.27
60.68
59.43
57.68
55.25
52.08
48.73
46.57
47.25
51.88
60.20
70.50
80.23
87.16
90.29
90.08
87.99
85.65
84.27
84.38
85.85
88.05
89.94
90.15
87.32
80.57
70.00
56.73
42.74
30.14
20.50
14.48
11.72
11.14
11.34
10.97
8.98
4.87
-1.20
-8.37
-15.20
-20.00
-21.18
-17.67
-9.19
3.70
19.82
37.65
55.45
71.45
84.08
92.65
97.93
102.52
110.15
124.10
145.20
170.73
194.72
210.08
211.19
196.05
166.57
127.38
83.80
40.31
-0.05
-35.34
-63.88
-83.69
-92.59
-88.97
-72.98
-47.44
-17.82
9.16
27.73
35.33
33.56
27.37
22.75
24.17
33.01
47.74
65.24
82.47
97.16
107.72
112.78
111.05
101.91
86.13
66.08
45.17
26.80
13.21
4.89
0.87
-0.56
-0.97
-1.20
-1.43
-1.35
-0.72
0.44
1.66
2.32
1.88
0.21
-2.27
-4.74
-6.27
-6.32
-4.85
-2.39
0.40
3.05
5.57
8.32
11.77
16.13
21.14
26.17
30.58
34.04
36.61
38.60
40.27
41.52
41.87
40.67
37.34
31.46
22.76
10.81
-4.94
-24.91
-48.83
-75.31
-101.71
-124.76
-141.46
-149.96
-150.01
-142.62
-129.58
-112.84
-94.34
-76.07
-60.05
-47.92
-40.49
-37.32
-37.12
-38.62
-41.60
-47.23
-57.52
-73.97
-96.46
-122.77
-149.22
-171.99
-188.42
-197.74
-200.91
-199.94
-197.05
-193.93
-191.47
-189.74
-188.11
-185.53
-180.84
-173.07
-162.10
-148.60
-133.93
-119.63
-106.95
-96.62
-88.68
-82.73
-78.35
-75.76
-75.86
-80.22
-90.66
-108.41
-133.12
-161.89
-189.27
-208.38
-213.57
-202.17
-175.61
-138.74
-98.03
-59.18
-25.59
1.86
23.95
40.67
51.77
57.58
59.81
61.26
64.75
71.98
82.98
96.29
107.24
111.66
107.99
98.39
87.33
79.05
75.95
77.95
83.28
85.85
80.89
67.63
50.29
35.40
27.70
28.03
33.07
36.87
28.03
-2.68
-58.65
-135.57
-224.20
-315.00
-400.55
-475.97
-507.37
-471.24
-365.75
-215.51
-55.05
89.92
207.53
296.05
359.07
402.54
427.76
436.96
432.48
417.60
395.85
369.01
336.83
297.95
251.37
193.62
128.00
63.39
12.05
-15.73
-16.83
3.52
34.68
65.57
86.72
94.59
90.95
80.98
69.75
59.75
51.05
43.21
36.64
31.69
28.80
27.51
26.87
25.81
23.17
18.58
12.69
7.00
2.74
0.67
0.39
0.88
0.86
-0.63
-3.93
-8.53
-13.36
-17.30
-19.57
-20.32
-20.30
-20.52
-21.76
-24.30
-27.97
-32.24
-36.65
-40.81
-44.79
-48.84
-53.05
-57.24
-60.78
-62.83
-62.62
-60.09
-54.91
-47.42
-38.20
-27.87
-16.86
-5.43
6.30
18.02
29.14
38.89
46.43
51.20
53.32
53.52
52.98
52.93
54.05
56.27
58.87
60.76
61.14
59.90
57.68
55.49
54.39
55.10
57.91
62.76
69.00
75.12
78.52
75.97
64.89
44.98
19.04
-7.51
-28.61
-40.12
-41.38
-35.12
-25.86
-17.62
-12.52
-10.66
-11.10
-13.06
-16.48
-21.52
-27.73
-33.63
-37.16
-36.48
-31.02
-21.75
-10.84
-0.81
6.02
8.78
8.06
5.35
2.33
0.03
-1.43
-2.73
-4.83
-8.31
-12.98
-17.86
-21.60
-23.04
-21.71
-18.03
-13.08
-8.22
-4.54
-2.53
-2.05
-2.57
-3.46
-4.22
-4.60
-4.55
-4.06
-3.16
-1.75
0.29
3.11
6.76
11.04
15.46
19.24
21.54
21.81
20.05
16.95
13.60
11.02
9.66
9.14
8.50
6.66
3.02
-2.30
-8.53
-14.59
-19.53
-22.72
-23.90
-23.03
-20.27
-16.02
-11.04
-6.41
-3.21
-2.00
-2.44
-3.25
-2.78
0.14
5.42
11.53
16.17
17.41
14.62
8.89
2.40
-2.62
-5.00
-5.02
-3.96
-3.18
-3.26
-3.85
-4.10
-3.45
-2.19
-1.25
-1.70
-4.01
-7.71
-11.64
-14.57
-15.79
-15.38
-14.06
-12.72
-11.97
-12.06
-12.90
-14.27
-15.98
-17.98
-20.32
-23.10
-26.33
-29.84
-33.29
-36.29
-38.50
-39.92
-40.84
-41.69
-42.73
-43.84
-44.46
-43.87
-41.52
-37.33
-31.68
-25.27
-18.80
-12.84
-7.72
-3.63
-0.61
1.36
2.44
2.93
3.22
3.84
5.33
8.10
12.32
17.86
24.32
31.24
38.20
44.99
51.55
57.93
64.17
70.28
76.33
82.43
88.67
94.92
100.78
105.61
108.79
110.01
109.43
107.59
105.07
102.20
98.93
94.89
89.62
82.81
74.45
64.80
54.41
43.93
34.09
25.50
18.54
13.10
8.65
4.21
-1.33
-8.88
-18.76
-30.51
-42.93
-54.43
-63.46
-68.98
-70.73
-69.19
-65.41
-60.62
-55.86
-51.79
-48.61
-46.23
-44.40
-42.91
-41.58
-40.22
-38.66
-36.63
-33.92
-30.46
-26.32
-21.81
-17.37
-13.45
-10.37
-8.26
-6.89
-5.84
-4.64
-2.90
-0.55
2.10
4.51
6.15
6.68
6.05
4.46
2.14
-0.71
-3.95
-7.33
-10.46
-12.88
-14.27
-14.54
-13.96
-12.96
-11.97
-11.28
-10.97
-10.96
-11.19
-11.64
-12.31
-13.22
-14.22
-15.05
-15.37
-14.86
-13.36
-10.93
-7.88
-4.69
-1.85
0.27
1.54
2.05
2.01
1.72
1.37
0.98
0.46
-0.34
-1.54
-3.04
-4.69
-6.33
-7.86
-9.36
-11.03
-13.03
-15.46
-18.27
-21.28
-24.34
-27.31
-30.09
-32.53
-34.51
-35.91
-36.73
-37.18
-37.63
-38.48
-40.06
-42.53
-45.87
-49.93
-54.51
-59.39
-64.36
-69.10
-73.14
-75.81
-76.32
-73.95
-68.31
-59.54
-48.29
-35.67
-22.88
-10.90
-0.36
8.59
16.04
22.23
27.44
31.96
36.09
40.15
44.33
48.66
52.91
56.74
59.74
61.59
62.19
61.70
60.58
59.61
59.76
61.92
66.65
73.89
82.86
92.22
100.43
106.17
108.50
107.12
102.26
94.78
85.96
77.26
69.89
64.25
59.76
54.93
48.08
37.99
24.56
8.79
-7.57
-22.70
-35.39
-45.31
-52.98
-59.46
-65.77
-72.51
-79.60
-86.21
-90.97
-92.36
-89.18
-80.93
-68.08
-51.91
-34.22
-16.83
-1.13
12.21
23.31
32.75
41.13
48.58
54.60
58.21
58.45
54.87
47.92
38.86
29.38
21.02
14.68
10.56
8.37
7.73
8.53
10.93
15.07
20.59
26.48
31.21
33.40
32.51
29.32
25.75
24.11
26.16
32.31
41.57
52.11
61.98
69.73
74.73
77.07
77.40
77.03
77.85
81.93
90.49
102.78
115.49
123.36
121.06
105.52
77.50
41.40
3.58
-30.23
-56.71
-75.46
-88.04
-96.41
-101.85
-104.77
-105.34
-104.13
-102.31
-101.26
-101.86
-103.93
-106.31
-107.38
-105.80
-101.20
-94.26
-86.44
-79.26
-73.74
-69.89
-66.84
-63.17
-57.49
-49.06
-38.08
-25.60
-13.03
-1.55
8.41
17.13
25.31
33.38
41.13
47.66
51.79
52.57
49.65
43.17
33.50
20.88
5.31
-13.20
-34.27
-56.84
-79.12
-99.01
-114.59
-124.52
-128.32
-126.31
-119.29
-108.26
-94.13
-77.61
-59.36
-40.10
-20.72
-2.24
14.38
28.49
39.86
48.59
54.87
58.68
59.74
57.59
52.01
43.33
32.62
21.50
11.58
3.97
-1.10
-4.24
-6.56
-9.09
-12.33
-16.10
-19.66
-22.13
-22.81
-21.44
-18.26
-13.81
-8.66
-3.24
2.28
7.89
13.51
18.99
24.03
28.32
31.74
34.48
36.91
39.37
42.00
44.60
46.80
48.30
49.14
49.70
50.53
51.99
54.03
56.18
57.73
58.09
57.07
54.87
52.02
49.04
46.23
43.70
41.36
39.14
37.03
35.11
33.40
31.87
30.37
28.70
26.75
24.55
22.22
19.95
17.85
16.00
14.44
13.31
12.76
12.90
13.61
14.47
14.87
14.22
12.17
8.83
4.65
0.30
-3.69
-7.08
-9.86
-12.15
-13.93
-14.97
-14.92
-13.46
-10.52
-6.24
-1.03
4.64
10.25
15.29
19.21
21.41
21.36
18.82
13.97
7.49
0.33
-6.57
-12.56
-17.46
-21.40
-24.65
-27.45
-29.82
-31.72
-33.16
-34.25
-35.30
-36.61
-38.34
-40.36
-42.36
-43.97
-44.96
-45.36
-45.37
-45.25
-45.18
-45.25
-45.48
-45.86
-46.38
-46.91
-47.17
-46.75
-45.22
-42.38
-38.37
-33.66
-28.92
-24.70
-21.33
-18.89
-17.22
-16.21
-15.73
-15.74
-16.16
-16.80
-17.39
-17.61
-17.24
-16.23
-14.70
-12.92
-11.21
-9.81
-8.96
-8.90
-9.80
-11.74
-14.55
-17.72
-20.45
-21.83
-21.23
-18.51
-14.11
-8.85
-3.58
1.09
5.00
8.31
11.33
14.23
16.96
19.30
21.01
22.03
22.55
22.94
23.73
25.34
27.95
31.40
35.22
38.75
41.33
42.56
42.41
41.26
39.93
39.48
41.06
45.62
53.62
64.68
77.43
89.78
99.48
105.05
106.39
104.99
103.34
103.86
107.89
115.13
123.85
131.58
136.00
135.54
129.65
118.66
103.52
85.63
66.59
48.12
31.71
18.35
8.11
-0.11
-8.58
-20.21
-37.46
-61.15
-89.49
-118.19
-141.69
-154.96
-155.43
-143.73
-123.26
-98.66
-74.24
-52.76
-35.29
-21.75
-11.61
-4.44
0.06
2.18
2.48
1.69
0.64
-0.05
-0.09
0.45
1.40
2.70
4.68
8.06
13.76
22.49
34.47
49.27
65.92
83.24
100.11
115.75
129.63
141.44
150.71
156.88
159.25
157.26
150.57
139.30
123.83
104.80
82.93
59.02
33.81
7.84
-18.73
-46.10
-74.62
-104.36
-134.68
-164.12
-190.72
-212.66
-228.86
-239.28
-244.70
-246.20
-244.68
-240.67
-234.50
-226.46
-217.05
-206.86
-196.45
-186.13
-176.06
-166.30
-156.84
-147.64
-138.53
-129.26
-119.54
-109.29
-98.70
-88.17
-78.16
-68.86
-60.14
-51.71
-43.26
-34.72
-26.30
-18.30
-10.83
-3.72
3.48
11.16
19.35
27.66
35.36
41.67
46.11
48.69
49.76
49.86
49.41
48.64
47.63
46.37
44.94
43.41
41.84
40.17
38.25
35.83
32.71
28.82
24.28
19.33
14.42
10.03
6.69
4.85
4.80
6.58
9.93
14.29
18.89
22.99
26.02
27.72
28.20
27.80
26.91
25.77
24.53
23.24
21.92
20.65
19.47
18.43
17.47
16.46
15.30
13.95
12.40
10.68
8.80
6.75
4.63
2.68
1.21
0.59
1.00
2.37
4.35
6.51
8.45
9.96
11.02
11.72
12.19
12.44
12.51
12.42
12.36
12.60
13.43
15.08
17.58
20.75
24.21
27.48
30.08
31.64
32.10
31.67
30.87
30.41
30.94
32.79
35.90
39.84
43.97
47.75
50.84
53.20
54.90
55.99
56.34
55.70
53.79
50.51
46.04
40.82
35.49
30.64
26.68
23.76
21.71
20.07
18.12
15.13
10.39
3.64
-4.80
-13.92
-22.23
-28.17
-30.74
-29.93
-26.78
-23.01
-20.35
-19.78
-21.17
-23.36
-24.72
-23.84
-20.03
-13.53
-5.25
3.65
12.19
19.82
26.36
31.86
36.37
39.72
41.39
40.57
36.44
28.47
16.77
2.33
-13.20
-27.85
-39.86
-48.06
-52.01
-51.92
-48.42
-42.35
-34.65
-26.23
-17.91
-10.35
-3.96
1.06
4.74
7.20
8.62
9.26
9.51
9.90
10.94
13.06
16.41
20.93
26.50
33.22
41.52
52.12
65.64
82.30
101.53
121.96
141.74
158.75
170.86
175.92
172.02
158.07
134.54
104.09
71.37
42.03
21.06
11.36
13.15
24.37
41.91
62.63
83.85
103.16
118.09
126.04
124.89
113.84
93.89
67.73
38.88
10.51
-15.35
-38.09
-58.16
-76.18
-92.46
-106.76
-118.52
-127.39
-133.51
-137.48
-140.13
-142.05
-143.40
-143.97
-143.36
-141.32
-137.89
-133.33
-127.95
-121.97
-115.46
-108.42
-100.82
-92.68
-84.11
-75.29
-66.49
-58.12
-50.68
-44.73
-40.74
-38.90
-39.04
-40.64
-42.97
-45.28
-47.02
-47.93
-48.02
-47.57
-46.97
-46.62
-46.75
-47.33
-47.97
-48.09
-47.02
-44.40
-40.27
-35.13
-29.83
-25.23
-21.93
-20.09
-19.44
-19.37
-19.28
-18.80
-17.87
-16.72
-15.57
-14.45
-13.13
-11.38
-9.12
-6.64
-4.46
-2.98
-2.22
-1.64
-0.42
2.17
6.32
11.60
17.15
22.11
25.86
28.21
29.32
29.51
29.09
28.29
27.31
26.32
25.52
25.06
24.98
25.15
25.28
24.97
23.82
21.55
18.04
13.28
7.39
0.62
-6.68
-13.98
-20.63
-25.97
-29.51
-31.07
-30.85
-29.34
-27.13
-24.75
-22.52
-20.63
-19.11
-17.88
-16.84
-15.76
-14.45
-12.74
-10.70
-8.62
-7.01
-6.43
-7.22
-9.36
-12.41
-15.65
-18.32
-19.84
-19.86
-18.41
-15.76
-12.41
-8.92
-5.82
-3.46
-1.85
-0.66
0.65
2.50
5.07
8.06
10.90
13.01
14.12
14.49
14.81
15.91
18.33
22.13
26.76
31.38
35.23
37.79
38.98
39.06
38.39
37.32
36.14
35.13
34.51
34.49
35.05
36.01
37.05
37.82
37.99
37.59
36.90
36.41
36.62
37.85
40.28
44.00
48.93
54.86
61.53
68.63
75.73
82.23
87.59
91.59
94.76
97.91
102.02
107.89
115.93
126.11
137.85
150.08
161.05
168.52
169.19
159.46
136.67
100.35
52.96
-0.49
-53.86
-102.79
-142.02
-167.54
-177.71
-173.68
-158.78
-137.14
-112.57
-88.24
-66.35
-47.67
-32.50
-20.83
-12.50
-7.19
-4.39
-3.40
-3.38
-3.42
-1.82
2.54
9.75
18.84
27.93
34.87
38.75
38.16
32.02
20.65
4.56
-16.41
-42.96
-75.99
-116.02
-162.81
-215.37
-271.83
-327.17
-374.02
-403.70
-408.24
-382.90
-328.03
-249.53
-153.37
-54.40
34.21
105.35
158.23
195.60
220.41
234.32
237.87
231.88
218.33
201.79
187.13
177.38
172.66
170.69
168.08
162.36
152.68
139.85
126.74
116.32
110.32
108.93
111.29
115.90
120.63
122.31
116.77
100.71
73.18
36.75
-2.58
-37.43
-61.79
-73.36
-73.89
-67.60
-58.47
-48.76
-38.88
-28.73
-18.89
-10.84
-6.86
-8.23
-14.65
-24.29
-34.71
-43.70
-50.15
-54.00
-55.77
-56.00
-54.70
-51.36
-45.27
-36.19
-24.53
-11.63
0.62
10.32
16.13
17.76
16.16
13.18
10.75
10.59
13.41
18.84
25.60
32.19
37.49
41.27
44.14
46.85
50.15
54.30
59.08
63.98
68.61
73.00
77.54
82.79
88.65
94.87
100.83
105.78
108.87
109.30
106.30
98.86
89.80
80.45
71.98
65.21
60.41
57.23
54.83
52.38
49.44
46.25
42.99
40.07
37.65
35.36
32.46
28.23
22.32
15.01
7.04
-1.17
-9.26
-17.17
-25.07
-33.16
-41.51
-49.99
-58.30
-66.12
-73.46
-80.27
-86.47
-91.94
-96.60
-100.43
-103.65
-106.58
-109.62
-113.15
-117.43
-122.64
-129.02
-137.09
-147.63
-161.66
-179.85
-201.97
-226.29
-249.46
-267.24
-275.69
-272.68
-258.68
-236.71
-211.20
-186.46
-165.37
-148.85
-136.22
-125.86
-116.18
-105.95
-94.46
-81.48
-67.14
-51.99
-36.81
-22.46
-9.63
1.24
10.04
17.04
22.71
27.75
32.86
38.56
44.90
51.45
57.32
61.47
63.21
62.39
59.44
55.21
50.59
46.19
42.29
38.79
35.46
32.06
28.52
25.05
22.12
20.44
20.74
23.64
29.48
38.11
48.94
60.90
72.70
82.98
90.62
94.93
95.78
93.58
89.13
83.42
77.40
71.79
67.06
63.33
60.45
58.09
55.86
53.43
50.54
46.99
42.76
37.92
32.72
27.57
23.03
19.73
18.19
18.69
21.09
24.96
29.58
34.19
38.00
40.41
40.99
39.59
36.39
31.97
27.12
22.73
19.45
17.46
16.30
15.12
12.95
9.25
4.13
-1.66
-7.12
-11.47
-14.62
-17.14
-19.93
-23.69
-28.39
-33.33
-37.36
-39.44
-38.90
-35.64
-30.09
-23.21
-16.60
-12.48
-13.44
-21.81
-38.72
-63.26
-92.23
-120.55
-142.57
-153.64
-151.34
-135.98
-110.20
-78.06
-43.79
-11.09
17.57
40.94
58.75
71.21
78.78
82.33
83.30
83.53
84.51
86.86
89.98
92.36
92.38
89.43
84.55
80.01
77.93
78.33
78.89
75.65
64.53
42.86
10.52
-29.60
-72.04
-110.17
-139.34
-157.26
-163.97
-161.31
-151.95
-138.38
-121.89
-102.60
-80.40
-58.63
-41.35
-30.93
-26.33
-24.02
-20.12
-12.18
0.15
15.23
26.55
28.84
21.34
8.16
-5.42
-16.42
-24.98
-33.26
-44.14
-65.40
-103.31
-159.13
-228.17
-303.07
-377.22
-445.64
-504.67
-519.38
-467.61
-353.91
-209.43
-68.32
50.24
142.00
210.35
260.62
297.67
320.10
326.50
318.70
303.26
287.80
277.26
273.49
276.09
283.45
289.39
289.32
280.17
263.37
242.18
218.94
194.63
169.36
143.00
113.41
79.84
43.01
6.05
-27.19
-53.83
-72.39
-82.74
-85.75
-84.38
-82.05
-81.48
-83.35
-86.88
-90.68
-93.21
-93.43
-90.98
-86.77
-82.38
-79.40
-78.56
-80.13
-84.20
-90.54
-97.88
-103.24
-102.38
-91.24
-68.21
-35.44
1.27
34.48
58.25
70.27
72.41
68.84
63.65
58.96
54.85
50.47
45.39
40.31
36.55
35.11
35.80
37.40
38.26
37.12
33.76
29.05
24.38
20.85
19.22
19.19
19.79
19.85
18.55
15.78
12.09
8.41
5.52
3.81
3.09
2.76
2.13
0.73
-1.53
-4.37
-7.31
-9.97
-12.16
-13.99
-15.70
-17.63
-19.98
-22.79
-25.97
-29.31
-32.64
-35.92
-39.22
-42.61
-46.24
-50.23
-54.69
-59.68
-65.18
-71.08
-77.25
-83.39
-89.01
-93.51
-96.18
-96.35
-93.73
-87.78
-78.24
-65.28
-49.41
-31.42
-12.38
6.59
24.36
39.98
52.80
62.48
68.96
72.50
73.52
72.45
69.80
65.99
61.39
56.33
51.07
45.84
40.84
36.20
31.86
27.75
23.73
19.68
15.61
11.74
8.38
5.84
4.35
3.87
4.07
4.46
4.56
4.11
3.26
2.44
2.13
2.62
3.80
5.19
6.05
5.76
4.17
1.88
-0.11
-0.80
0.45
3.57
7.80
12.16
15.78
18.36
20.45
22.97
26.91
33.29
43.28
58.08
78.42
103.67
129.24
149.45
158.49
152.78
132.63
102.22
67.67
34.44
5.56
-18.26
-36.91
-49.57
-54.12
-48.20
-30.91
-4.06
28.04
59.94
86.73
105.33
114.32
113.55
103.76
86.38
63.75
38.98
15.72
-2.60
-13.49
-16.39
-13.11
-7.71
-5.56
-11.67
-29.00
-57.15
-92.48
-129.21
-161.41
-184.71
-197.03
-198.39
-189.95
-173.06
-148.97
-119.02
-85.05
-49.58
-15.41
14.99
39.98
58.84
71.42
77.77
78.13
73.30
65.01
55.89
48.80
45.69
46.68
49.86
52.01
50.02
42.14
28.61
11.35
-6.83
-23.10
-35.39
-42.66
-44.96
-43.15
-38.42
-31.80
-23.63
-13.52
-0.61
15.80
35.68
58.01
80.95
102.35
120.36
133.86
142.77
148.20
152.50
158.79
170.10
187.90
210.95
235.05
254.15
262.45
256.62
236.87
206.39
169.61
130.07
89.22
46.69
1.67
-45.42
-91.95
-133.50
-165.34
-184.34
-190.38
-186.62
-178.53
-171.93
-171.10
-177.63
-190.70
-208.23
-228.37
-250.33
-274.32
-300.59
-328.46
-355.60
-378.36
-392.41
-394.02
-381.01
-353.37
-313.20
-264.07
-210.16
-155.22
-102.04
-52.38
-7.36
32.09
65.01
90.59
108.71
120.27
127.19
131.87
136.37
141.70
147.56
152.79
156.12
156.93
155.54
152.87
149.84
146.76
143.18
138.25
131.44
122.82
113.13
103.31
93.95
85.01
76.05
66.53
56.19
45.12
33.66
22.03
10.21
-2.15
-15.58
-30.58
-47.45
-66.10
-86.02
-106.22
-125.40
-142.09
-155.11
-163.76
-167.87
-167.61
-163.13
-154.45
-141.54
-124.67
-104.69
-83.15
-61.93
-42.67
-26.17
-12.11
0.77
14.07
29.13
46.60
66.32
87.56
109.25
130.12
148.82
163.93
174.16
178.64
177.25
170.83
161.19
150.69
141.68
135.94
134.17
135.92
139.87
144.43
148.41
151.51
154.29
157.60
161.82
166.32
169.61
170.05
166.76
160.07
151.33
142.15
133.58
125.87
118.49
110.67
101.55
90.21
75.50
56.00
30.37
-2.02
-40.31
-81.77
-122.05
-156.35
-181.17
-195.97
-203.61
-209.18
-217.51
-230.64
-246.71
-261.10
-269.16
-268.82
-261.50
-250.71
-239.32
-227.47
-212.42
-190.44
-159.46
-120.77
-79.04
-40.68
-11.64
4.38
6.70
-2.59
-19.42
-39.01
-56.92
-69.98
-76.69
-77.10
-72.28
-63.65
-52.30
-38.75
-22.82
-3.89
18.76
45.52
76.13
109.55
144.13
178.10
210.10
239.51
266.45
291.56
315.40
338.05
358.65
375.35
385.45
385.76
373.45
347.13
307.87
259.61
208.58
161.70
124.50
99.34
84.88
77.02
70.81
62.42
50.21
34.47
16.46
-2.65
-22.27
-42.04
-61.30
-78.76
-92.75
-101.93
-105.94
-105.71
-103.10
-100.16
-98.42
-98.43
-99.74
-101.30
-101.96
-100.82
-97.47
-91.97
-84.75
-76.42
-67.61
-58.82
-50.26
-41.86
-33.51
-25.56
-19.19
-16.59
-20.35
-32.40
-53.10
-80.58
-111.24
-140.81
-165.64
-183.36
-192.92
-193.99
-186.54
-171.01
-148.66
-122.04
-94.70
-70.24
-51.08
-37.68
-28.72
-22.07
-16.10
-10.56
-6.62
-6.21
-11.00
-21.75
-37.98
-58.21
-80.35
-102.31
-122.33
-139.34
-153.04
-163.75
-172.18
-179.10
-185.06
-190.21
-194.34
-196.85
-196.86
-193.41
-185.61
-172.98
-155.79
-135.14
-112.75
-90.45
-69.43
-49.93
-31.20
-12.11
8.13
29.48
50.96
71.13
88.70
103.08
114.54
124.07
132.90
142.05
152.01
162.75
173.92
185.15
196.33
207.60
219.08
230.60
241.59
251.31
259.18
264.96
268.48
269.10
265.24
254.56
234.72
204.59
164.88
118.05
67.23
15.06
-36.85
-87.61
-136.05
-179.98
-216.45
-242.83
-258.13
-263.78
-263.17
-260.21
-257.86
-257.08
-256.90
-255.41
-250.84
-242.34
-230.03
-214.59
-196.56
-176.18
-153.55
-129.17
-104.30
-81.06
-61.73
-47.81
-39.28
-34.47
-30.85
-26.10
-19.13
-10.30
-0.93
7.59
14.56
20.19
25.19
30.22
35.44
40.54
45.00
48.43
50.74
52.10
52.85
53.33
53.70
53.92
53.73
52.70
50.55
47.35
43.65
40.25
37.77
36.15
34.29
30.32
22.21
8.85
-9.19
-29.36
-47.57
-59.27
-60.88
-51.01
-30.94
-4.36
23.83
49.00
68.03
79.83
85.10
85.50
82.77
78.05
71.86
64.33
55.53
45.68
35.11
24.12
12.83
1.31
-10.31
-21.63
-31.96
-40.37
-45.86
-47.63
-45.28
-39.11
-30.09
-19.85
-10.19
-2.60
2.25
4.60
5.44
5.94
6.97
8.84
11.31
14.01
16.68
19.38
22.41
26.01
30.13
34.36
38.02
40.37
40.88
39.33
35.88
31.00
25.23
19.17
13.26
7.79
2.85
-1.50
-5.13
-7.88
-9.47
-9.66
-8.36
-5.76
-2.32
1.32
4.51
6.81
8.13
8.69
8.96
9.43
10.39
11.81
13.35
14.58
15.15
14.95
14.20
13.26
12.47
12.01
11.87
12.04
12.46
13.10
13.80
14.25
14.08
13.02
11.14
8.89
6.98
6.05
6.37
7.73
9.62
11.55
13.26
14.87
16.66
18.85
21.47
24.31
27.13
29.83
32.61
35.87
40.11
45.63
52.37
59.88
67.45
74.36
80.13
84.70
88.49
92.35
97.31
104.31
113.79
125.49
138.43
151.15
162.12
170.40
176.07
180.30
185.09
192.57
204.26
220.37
239.60
259.40
276.71
288.74
293.51
290.20
279.13
261.58
239.49
215.04
190.12
165.99
143.04
120.97
99.34
78.01
57.37
38.13
20.69
4.74
-10.86
-27.65
-46.85
-68.75
-92.71
-117.64
-142.59
-167.28
-192.13
-218.06
-246.08
-277.10
-311.88
-350.72
-392.77
-435.14
-472.64
-498.52
-506.50
-493.15
-459.45
-410.60
-353.95
-296.19
-241.30
-190.20
-142.03
-96.03
-52.55
-12.80
22.32
53.28
81.95
110.63
140.60
171.42
200.89
226.17
245.15
257.45
264.55
269.25
274.56
282.76
294.97
311.15
330.39
351.18
371.43
388.47
399.16
400.52
390.55
369.19
338.45
301.99
264.02
228.13
196.53
169.97
148.26
130.78
116.89
105.92
97.11
89.51
82.10
73.98
64.53
53.59
41.33
28.20
14.77
1.49
-11.37
-23.87
-36.42
-49.63
-64.02
-79.89
-97.02
-114.77
-132.27
-148.70
-163.85
-178.15
-192.70
-208.79
-227.41
-248.73
-272.05
-296.08
-319.40
-341.06
-360.83
-379.19
-397.26
-416.69
-439.46
-467.34
-500.54
-536.53
-569.47
-591.16
-593.42
-571.10
-524.06
-457.36
-379.42
-299.21
-223.77
-157.17
-100.66
-53.59
-14.35
19.24
49.62
79.21
109.93
142.74
177.34
212.49
246.50
277.78
305.38
329.30
350.48
370.39
390.35
410.47
429.14
442.90
447.42
439.07
416.35
380.62
335.67
286.33
236.90
190.09
146.76
106.55
68.81
33.20
-0.14
-31.06
-59.72
-86.89
-113.86
-142.12
-172.85
-206.58
-242.68
-279.31
-313.73
-342.93
-364.41
-376.90
-380.58
-376.91
-368.05
-356.10
-342.48
-327.76
-311.73
-294.02
-274.55
-254.03
-233.86
-215.71
-200.89
-189.94
-182.54
-178.05
-176.06
-176.74
-180.47
-187.12
-195.34
-202.34
-204.47
-198.39
-182.04
-155.09
-118.77
-75.44
-28.36
18.28
59.34
89.35
104.10
102.51
87.91
67.95
52.62
51.13
69.07
106.55
158.12
214.31
264.05
297.25
306.80
289.61
246.53
181.54
100.80
12.04
-75.79
-152.99
-210.30
-240.99
-242.91
-219.70
-179.86
-134.18
-92.20
-59.71
-38.07
-25.40
-18.59
-15.04
-13.35
-13.02
-13.61
-14.38
-14.22
-12.17
-7.99
-2.39
3.25
7.49
9.64
10.24
10.86
13.44
19.22
28.07
38.41
47.91
54.50
57.18
56.31
53.23
49.55
46.56
44.94
44.79
45.85
47.63
49.56
50.96
51.10
49.40
45.64
40.02
33.21
25.98
19.00
12.68
7.05
1.88
-3.22
-8.56
-14.21
-19.86
-24.81
-28.18
-29.15
-27.32
-22.85
-16.46
-9.16
-2.02
4.15
8.84
11.87
13.16
12.76
10.76
7.32
2.77
-2.50
-8.08
-13.63
-18.90
-23.72
-28.00
-31.69
-34.79
-37.43
-39.99
-43.01
-47.10
-52.67
-59.75
-67.87
-76.12
-83.32
-88.21
-89.67
-86.94
-79.80
-68.72
-54.77
-39.43
-24.29
-10.65
0.66
9.24
15.00
18.05
18.62
17.10
14.00
9.89
5.23
0.28
-4.87
-10.23
-15.77
-21.41
-27.07
-32.64
-37.81
-42.05
-44.46
-44.07
-40.16
-32.57
-21.89
-9.29
3.80
16.07
26.58
34.83
40.74
44.59
46.91
48.39
49.90
52.39
56.96
64.73
76.80
93.94
116.19
142.76
171.88
201.15
227.86
249.42
263.85
270.03
268.07
259.34
246.46
232.79
221.63
215.41
215.05
220.03
228.74
239.12
248.99
256.29
258.93
254.82
242.14
219.72
187.41
146.03
97.32
43.80
-11.02
-62.67
-106.27
-137.70
-155.33
-161.01
-159.72
-157.64
-159.34
-165.88
-174.52
-180.51
-179.54
-169.81
-152.33
-129.83
-105.07
-79.81
-54.90
-31.03
-9.36
8.46
20.96
27.63
29.34
27.92
25.26
22.62
20.17
17.38
13.50
8.08
1.25
-6.38
-13.92
-20.44
-25.17
-27.59
-27.60
-25.58
-22.37
-18.94
-16.08
-14.02
-12.34
-10.21
-6.78
-1.62
5.03
12.40
19.60
25.92
31.06
35.09
38.26
40.78
42.75
44.27
45.45
46.49
47.56
48.70
49.81
50.64
50.99
50.71
49.83
48.43
46.57
44.27
41.54
38.37
34.90
31.43
28.48
26.80
27.15
30.03
35.44
42.79
51.04
58.99
65.68
70.56
73.50
74.58
73.85
71.33
67.06
61.28
54.48
47.34
40.42
33.92
27.68
21.28
14.39
7.07
-0.19
-6.68
-11.82
-15.52
-18.25
-20.81
-23.95
-27.84
-31.95
-35.12
-36.06
-33.78
-28.07
-19.52
-9.42
0.75
9.69
16.63
21.43
24.35
25.82
26.11
25.41
23.79
21.36
18.28
14.80
11.31
8.22
6.01
5.05
5.39
6.64
7.88
8.07
6.38
2.66
-2.45
-7.77
-12.18
-15.10
-16.70
-17.78
-19.20
-21.43
-24.29
-27.05
-28.79
-28.84
-26.93
-23.25
-18.23
-12.20
-5.42
1.93
9.48
16.62
22.62
26.98
29.73
31.54
33.38
36.11
40.07
45.06
50.49
55.80
60.66
65.00
68.86
72.25
75.19
77.87
80.88
85.12
91.55
100.70
112.48
126.16
140.76
155.44
169.75
183.42
196.04
206.91
215.16
220.29
222.73
223.84
225.29
228.01
231.10
231.73
225.93
210.22
183.01
145.38
100.54
52.78
6.04
-36.98
-75.18
-108.69
-138.44
-165.65
-191.40
-216.36
-240.56
-263.54
-284.42
-302.41
-317.24
-329.42
-340.46
-352.85
-369.90
-394.85
-429.33
-471.68
-516.00
-552.99
-572.69
-568.12
-537.96
-487.03
-424.01
-357.90
-294.76
-236.60
-182.28
-129.57
-77.02
-24.63
26.27
73.79
116.00
151.16
177.84
195.14
203.08
202.45
194.93
182.63
167.76
152.26
137.68
125.00
114.69
106.71
100.48
95.20
89.93
83.96
76.90
68.88
60.55
52.84
46.52
41.72
37.80
33.60
28.02
20.67
12.08
3.46
-3.89
-9.29
-12.86
-15.36
-17.65
-20.12
-22.58
-24.38
-24.92
-23.98
-21.91
-19.43
-17.29
-15.92
-15.31
-15.00
-14.33
-12.53
-8.91
-3.00
5.35
15.81
27.64
39.79
51.30
61.48
70.04
76.95
82.21
85.73
87.44
87.61
87.15
87.72
91.42
100.16
115.00
135.68
160.71
187.85
214.82
239.92
262.36
282.16
299.80
315.92
330.87
344.60
356.35
364.68
367.67
363.41
350.76
330.00
302.88
272.15
240.69
210.64
183.02
157.94
135.12
114.30
95.37
78.10
61.79
45.33
27.39
7.00
-16.04
-41.04
-66.85
-92.25
-116.61
-140.10
-163.52
-187.93
-214.29
-243.18
-274.65
-308.22
-342.69
-376.25
-406.63
-431.56
-449.42
-459.70
-463.05
-460.94
-455.00
-446.59
-436.69
-426.11
-415.54
-405.51
-395.90
-385.56
-372.31
-353.37
-326.17
-289.17
-242.27
-186.99
-126.52
-65.28
-8.25
40.08
76.90
101.90
117.02
125.52
130.31
132.84
132.84
129.16
121.08
109.26
95.76
83.15
73.38
66.99
63.12
60.29
57.18
53.25
48.71
44.16
40.03
36.30
32.60
28.43
23.63
18.39
13.21
8.60
4.85
1.94
-0.35
-2.22
-3.67
-4.42
-4.10
-2.40
0.61
4.45
8.37
11.51
13.31
13.57
12.59
11.05
9.81
9.69
11.34
15.04
20.58
27.35
34.37
40.61
45.21
47.74
48.29
47.39
45.76
44.04
42.64
41.52
40.34
38.55
35.73
31.72
26.77
21.41
16.25
11.81
8.40
6.11
4.84
4.29
3.94
3.10
1.16
-2.22
-6.76
-11.57
-15.41
-17.26
-16.73
-14.28
-11.01
-8.18
-6.75
-7.08
-9.03
-11.99
-15.27
-18.07
-19.53
-18.85
-15.39
-8.90
0.48
12.17
25.32
38.77
51.17
61.13
67.48
69.79
68.45
64.65
59.68
54.42
48.89
42.53
34.72
25.54
15.92
7.49
1.76
-0.41
0.76
4.15
8.20
11.43
12.93
12.72
11.66
11.07
12.22
15.74
21.37
28.19
35.14
41.51
47.27
52.85
58.76
65.27
72.33
79.65
86.89
93.61
99.20
102.90
103.96
102.06
97.60
91.68
85.73
81.06
78.26
77.15
76.87
76.17
73.82
68.92
61.18
51.04
39.60
28.19
17.94
9.35
2.12
-4.88
-13.39
-25.39
-42.59
-65.67
-93.72
-123.98
-152.33
-174.42
-187.01
-188.91
-181.08
-166.01
-146.74
-125.98
-105.68
-87.06
-70.77
-56.94
-45.23
-34.90
-25.15
-15.40
-5.54
4.10
12.96
20.56
26.67
31.40
35.14
38.47
42.02
46.26
51.28
56.74
61.95
66.07
68.51
69.07
67.95
65.54
62.19
57.98
52.93
47.06
40.57
33.87
27.41
21.52
16.22
11.23
5.97
-0.28
-8.12
-17.76
-28.72
-39.77
-49.22
-55.40
-57.23
-54.66
-48.51
-40.22
-31.33
-23.29
-17.46
-15.11
-17.25
-24.24
-35.36
-48.68
-61.38
-70.63
-74.42
-72.08
-64.38
-52.94
-39.81
-26.89
-15.84
-7.96
-4.31
-5.57
-11.91
-22.90
-37.53
-54.29
-71.43
-87.17
-99.85
-108.12
-111.09
-108.64
-101.47
-91.15
-79.73
-69.23
-61.12
-56.04
-53.83
-53.91
-55.65
-58.58
-62.33
-66.44
-70.24
-73.04
-74.41
-74.46
-73.74
-72.88
-72.16
-71.25
-69.58
-66.80
-63.24
-59.88
-57.94
-58.17
-60.48
-64.00
-67.49
-69.81
-70.19
-68.26
-63.77
-56.57
-46.74
-34.73
-21.52
-8.46
3.15
12.37
18.87
22.96
25.38
27.05
28.90
31.59
35.37
39.95
44.59
48.39
50.76
51.76
52.17
53.11
55.33
58.77
62.43
64.89
65.10
62.84
58.86
54.36
50.41
47.38
45.05
42.87
40.43
37.65
34.76
31.98
29.36
26.75
23.95
20.89
17.78
15.04
13.05
12.13
12.42
13.98
16.92
21.40
27.48
34.95
43.08
50.82
56.95
60.56
61.29
59.39
55.61
50.88
46.14
42.03
38.80
36.25
33.77
30.44
25.27
17.49
6.79
-6.45
-21.09
-35.31
-46.89
-53.75
-54.50
-48.94
-38.22
-24.49
-10.28
2.15
11.33
16.69
18.22
16.27
11.31
3.93
-5.07
-14.56
-23.40
-30.65
-35.90
-39.41
-41.96
-44.57
-48.20
-53.57
-61.11
-70.94
-82.79
-95.69
-107.94
-117.18
-120.83
-116.99
-105.14
-86.58
-64.04
-40.82
-19.81
-2.72
9.99
18.75
24.36
27.63
29.21
29.71
29.74
29.75
29.89
29.90
29.23
27.42
24.33
20.38
16.30
12.81
10.19
8.13
5.79
2.26
-2.99
-9.56
-16.18
-21.16
-23.21
-22.21
-19.46
-17.10
-17.21
-20.64
-26.72
-33.53
-38.96
-41.61
-41.19
-38.21
-33.40
-27.11
-19.28
-9.83
0.95
12.24
22.97
32.31
40.02
46.49
52.24
57.45
61.66
63.88
63.13
59.15
52.90
46.62
43.27
45.52
54.84
70.89
91.72
114.48
136.28
154.97
169.35
179.04
184.06
184.40
179.83
169.91
154.24
132.70
105.76
74.66
41.40
8.34
-22.24
-49.02
-72.02
-92.60
-112.76
-133.98
-156.14
-177.00
-192.68
-198.78
-191.85
-170.53
-136.01
-91.60
-41.81
8.64
55.60
95.89
127.55
149.98
164.06
172.08
177.31
183.22
192.42
206.11
223.75
243.35
261.99
276.57
284.69
285.24
278.83
267.56
254.46
242.61
234.41
231.27
233.71
241.73
254.81
271.60
289.51
304.61
312.42
309.30
293.90
267.82
234.94
199.89
166.33
135.87
108.01
80.96
52.71
21.94
-11.70
-47.48
-83.64
-117.42
-145.51
-164.80
-173.48
-172.02
-163.43
-152.38
-143.40
-138.97
-138.41
-138.44
-134.80
-124.61
-107.85
-87.43
-67.80
-52.93
-44.57
-41.82
-42.20
-43.46
-45.30
-49.82
-60.30
-79.12
-105.77
-136.22
-163.94
-182.17
-186.45
-176.17
-154.53
-127.12
-99.98
-77.88
-63.29
-56.41
-55.78
-58.98
-63.04
-64.46
-59.72
-46.30
-24.10
3.48
30.07
48.55
54.24
47.44
33.60
20.89
16.50
23.62
40.90
64.19
89.31
113.72
136.52
156.95
173.08
182.05
181.32
170.15
150.19
124.76
97.21
69.48
41.54
11.91
-21.16
-58.57
-99.51
-141.26
-179.52
-209.52
-227.58
-232.58
-226.70
-214.67
-201.95
-192.38
-186.84
-183.70
-180.73
-177.54
-176.66
-182.66
-199.40
-227.08
-260.71
-290.98
-307.46
-302.40
-273.58
-224.85
-164.62
-102.90
-48.47
-7.00
19.44
31.73
32.64
25.51
13.60
-0.58
-15.23
-29.22
-41.93
-52.99
-62.23
-69.59
-75.08
-78.61
-79.86
-78.33
-73.45
-64.99
-53.24
-39.09
-23.79
-8.78
4.74
15.88
24.19
29.69
32.72
33.94
34.05
33.58
32.80
31.78
30.54
29.28
28.42
28.40
29.52
31.70
34.50
37.29
39.42
40.43
40.12
38.62
36.29
33.70
31.34
29.49
28.14
27.01
25.77
24.18
22.30
20.41
18.91
18.03
17.76
17.82
17.77
17.15
15.65
13.28
10.27
7.17
4.54
2.80
2.03
2.07
2.56
3.12
3.42
3.23
2.42
0.95
-1.13
-3.57
-6.08
-8.31
-10.01
-11.12
-11.75
-12.08
-12.26
-12.30
-12.08
-11.40
-10.07
-8.00
-5.25
-2.13
0.95
3.60
5.58
6.97
8.02
9.10
10.44
12.06
13.76
15.23
16.22
16.67
16.72
16.60
16.49
16.44
16.31
15.95
15.29
14.39
13.40
12.44
11.48
10.29
8.60
6.29
3.54
0.86
-1.08
-1.78
-1.03
0.96
3.72
6.74
9.60
12.02
13.82
14.88
15.11
14.45
13.01
11.02
8.78
6.64
4.83
3.55
2.93
3.04
3.80
5.01
6.33
7.43
8.12
8.34
8.20
7.83
7.25
6.40
5.21
3.71
2.16
0.97
0.53
1.08
2.61
4.84
7.42
9.96
12.16
13.77
14.69
14.87
14.43
13.59
12.65
11.87
11.40
11.33
11.68
12.49
13.77
15.54
17.66
19.85
21.82
23.33
24.40
25.20
26.01
27.01
28.24
29.66
31.25
33.21
35.88
39.65
44.75
51.12
58.34
65.85
73.06
79.64
85.56
91.00
96.30
101.76
107.70
114.31
121.70
129.91
138.85
148.44
158.57
169.23
180.53
192.59
205.46
218.75
231.50
242.25
249.36
251.46
247.74
238.00
222.33
200.85
173.59
140.66
102.59
60.72
17.02
-26.33
-67.56
-105.78
-140.95
-173.55
-204.09
-232.88
-259.94
-284.93
-306.88
-323.83
-332.77
-330.10
-312.71
-279.19
-230.77
-171.19
-105.87
-40.44
20.41
73.53
117.15
150.34
172.49
183.13
182.17
170.45
150.02
124.00
95.77
67.97
41.63
16.03
-10.74
-40.68
-74.92
-112.95
-152.74
-191.04
-224.19
-248.90
-263.10
-266.45
-260.46
-247.80
-231.11
-211.81
-189.76
-164.02
-134.35
-102.32
-71.54
-46.41
-30.17
-23.53
-24.41
-28.92
-33.13
-34.39
-31.92
-26.41
-19.14
-11.18
-3.15
4.63
11.84
17.90
22.07
23.84
23.28
21.27
19.24
18.66
20.43
24.51
29.93
35.18
38.81
39.90
38.26
34.38
29.17
23.59
18.43
14.20
11.06
8.95
7.60
6.71
6.09
5.80
6.21
7.93
11.51
17.14
24.39
32.25
39.36
44.55
47.27
47.88
47.48
47.48
48.95
52.14
56.37
60.32
62.46
61.61
57.15
49.08
37.84
24.21
9.26
-5.69
-19.15
-29.60
-35.98
-37.95
-35.99
-31.16
-24.69
-17.55
-10.31
-3.27
3.31
9.12
13.86
17.41
20.00
22.09
24.13
26.16
27.74
28.10
26.51
22.87
17.83
12.73
9.06
7.86
9.30
12.65
16.49
19.19
19.37
16.20
9.57
0.14
-10.79
-21.44
-29.93
-34.65
-34.72
-30.22
-22.14
-12.13
-2.11
6.17
11.44
13.14
11.42
7.03
1.07
-5.32
-11.24
-16.20
-20.09
-23.14
-25.71
-28.20
-30.89
-33.82
-36.90
-39.94
-42.82
-45.70
-48.91
-52.84
-57.58
-62.78
-67.63
-71.16
-72.55
-71.41
-67.83
-62.27
-55.43
-48.10
-41.09
-35.09
-30.67
-28.14
-27.48
-28.38
-30.30
-32.57
-34.55
-35.79
-36.15
-35.85
-35.41
-35.43
-36.42
-38.57
-41.84
-46.05
-50.92
-56.11
-61.05
-64.93
-66.78
-65.75
-61.52
-54.41
-45.37
-35.66
-26.39
-18.31
-11.71
-6.56
-2.83
-0.51
0.42
0.10
-1.13
-2.73
-4.22
-5.26
-5.86
-6.22
-6.65
-7.31
-8.29
-9.65
-11.56
-14.26
-17.94
-22.45
-27.17
-31.03
-32.86
-31.83
-27.75
-21.15
-13.05
-4.53
3.48
10.45
16.12
20.40
23.15
24.28
23.76
21.79
18.81
15.43
12.26
9.82
8.29
7.60
7.34
7.00
5.98
3.85
0.46
-4.14
-9.73
-16.08
-22.95
-30.10
-37.15
-43.60
-48.85
-52.40
-54.03
-53.84
-52.09
-49.05
-44.92
-39.98
-34.84
-30.39
-27.60
-27.13
-28.84
-31.74
-34.15
-34.28
-30.72
-22.85
-10.91
4.06
20.53
36.84
51.59
63.94
73.71
81.34
87.53
92.86
97.59
101.57
104.67
106.91
108.61
110.24
111.99
113.47
113.65
111.31
105.68
97.05
86.84
77.04
69.32
64.25
61.07
58.25
54.41
49.16
43.37
38.72
36.99
39.29
45.76
55.71
67.94
81.23
94.53
107.04
118.16
127.39
134.44
139.17
141.81
143.05
143.89
145.49
148.74
153.92
160.56
167.55
173.50
177.17
177.87
175.52
170.60
163.92
156.30
148.36
140.44
132.62
124.75
116.60
107.89
98.42
88.17
77.32
66.19
54.92
43.29
30.62
15.85
-1.96
-23.29
-48.12
-76.04
-106.36
-137.69
-167.40
-191.32
-204.51
-202.84
-184.82
-152.58
-111.44
-68.06
-28.30
4.34
28.86
45.80
56.12
60.46
59.17
52.77
42.33
29.51
16.29
4.53
-4.40
-9.92
-12.48
-13.36
-14.28
-16.83
-21.83
-29.26
-38.33
-47.98
-57.40
-66.16
-74.19
-81.44
-87.72
-92.54
-95.32
-95.42
-92.23
-85.21
-74.01
-58.56
-39.21
-16.83
7.31
31.95
56.30
80.29
104.65
130.34
157.96
186.88
214.70
237.49
250.59
250.14
234.40
204.47
163.77
116.81
67.74
19.36
-27.03
-71.29
-113.92
-155.62
-196.78
-237.03
-274.62
-306.49
-329.15
-340.38
-340.74
-334.03
-325.82
-320.88
-320.86
-323.39
-323.22
-314.68
-294.09
-260.97
-217.79
-168.67
-117.97
-69.53
-26.37
9.15
35.16
50.48
55.03
50.08
38.29
23.14
7.99
-4.87
-14.66
-21.89
-27.43
-31.51
-33.21
-30.73
-22.40
-7.87
11.34
32.02
50.29
62.93
68.34
66.80
60.03
50.38
40.06
30.73
23.28
17.99
14.63
12.53
10.74
8.31
4.52
-0.91
-7.68
-15.13
-22.51
-29.26
-35.21
-40.53
-45.50
-50.21
-54.49
-57.82
-59.62
-59.48
-57.35
-53.61
-48.97
-44.16
-39.75
-36.02
-32.85
-29.86
-26.45
-21.99
-16.01
-8.25
1.24
12.19
24.16
36.72
49.49
62.13
74.53
86.68
98.80
111.12
123.74
136.45
148.72
159.93
169.64
178.02
185.81
194.14
203.98
215.75
229.04
242.80
255.68
266.44
274.19
278.28
278.19
273.30
263.00
246.92
225.20
198.69
168.75
136.94
104.62
72.67
41.61
11.81
-16.25
-42.11
-65.64
-87.42
-108.74
-131.30
-156.54
-184.90
-215.57
-246.49
-275.02
-298.51
-314.96
-323.21
-322.95
-314.55
-298.79
-276.80
-249.86
-219.33
-186.56
-152.87
-119.41
-87.19
-56.96
-29.18
-4.03
18.57
38.80
56.87
72.90
86.78
98.34
107.39
113.93
118.20
120.69
121.88
122.06
121.30
119.43
116.39
112.38
107.99
103.93
100.70
98.10
95.11
90.03
80.99
66.65
46.66
21.77
-6.49
-36.34
-66.29
-95.27
-122.49
-147.14
-168.03
-183.53
-191.70
-190.82
-179.91
-159.23
-130.50
-96.58
-61.01
-27.22
2.18
25.72
43.08
54.80
61.82
65.21
65.99
65.06
63.18
60.80
58.04
54.70
50.46
45.10
38.72
31.70
24.67
18.22
12.73
8.23
4.43
0.79
-3.29
-8.38
-14.82
-22.60
-31.25
-39.80
-47.00
-51.65
-53.14
-51.70
-48.49
-45.18
-43.27
-43.54
-45.67
-48.51
-50.54
-50.60
-48.21
-43.64
-37.62
-30.96
-24.20
-17.65
-11.37
-5.33
0.46
5.94
11.06
15.81
20.31
24.69
29.08
33.42
37.53
41.07
43.66
45.00
44.90
43.35
40.44
36.36
31.35
25.79
20.16
15.07
11.20
9.18
9.40
11.85
16.09
21.25
26.24
30.08
32.08
32.08
30.37
27.49
24.02
20.42
17.00
13.96
11.42
9.40
7.86
6.61
5.37
3.86
1.82
-0.93
-4.52
-8.97
-14.15
-19.73
-25.17
-29.76
-32.89
-34.26
-33.97
-32.48
-30.37
-28.17
-26.20
-24.60
-23.48
-22.99
-23.38
-24.87
-27.43
-30.70
-34.01
-36.59
-37.90
-37.79
-36.52
-34.64
-32.72
-31.14
-30.03
-29.38
-29.23
-29.66
-30.73
-32.33
-33.93
-34.69
-33.73
-30.48
-25.02
-18.05
-10.66
-3.86
1.69
5.84
8.75
10.66
11.71
11.89
11.28
10.16
9.01
8.36
8.57
9.61
11.08
12.47
13.25
13.17
12.11
10.07
7.02
2.94
-2.03
-7.46
-12.48
-16.00
-16.99
-14.89
-9.89
-2.85
4.89
11.99
17.49
20.93
22.29
21.78
19.72
16.36
12.09
7.41
2.94
-0.75
-3.26
-4.63
-5.15
-5.33
-5.65
-6.48
-8.07
-10.56
-14.10
-18.80
-24.71
-31.53
-38.65
-45.08
-49.67
-51.43
-49.82
-45.03
-37.88
-29.64
-21.63
-14.94
-10.17
-7.40
-6.27
-6.17
-6.41
-6.37
-5.67
-4.10
-1.70
1.33
4.64
7.82
10.38
11.88
11.97
10.48
7.43
3.01
-2.44
-8.42
-14.34
-19.46
-23.07
-24.52
-23.54
-20.29
-15.36
-9.60
-3.81
1.40
5.71
8.97
11.14
12.08
11.68
9.96
7.19
3.94
0.92
-1.27
-2.33
-2.35
-1.62
-0.36
1.44
4.07
7.80
12.48
17.43
21.47
23.45
22.64
19.10
13.65
7.44
1.65
-2.95
-6.00
-7.52
-7.71
-6.89
-5.45
-3.84
-2.47
-1.65
-1.51
-1.94
-2.73
-3.62
-4.38
-4.84
-4.92
-4.65
-4.16
-3.64
-3.24
-2.98
-2.73
-2.27
-1.44
-0.22
1.25
2.91
4.86
7.50
11.33
16.78
23.92
32.29
41.14
49.54
56.77
62.38
66.28
68.66
69.85
70.24
70.18
69.94
69.65
69.30
68.72
67.57
65.48
62.14
57.42
51.53
44.97
38.42
32.49
27.58
23.83
21.37
20.49
21.86
26.31
34.55
46.71
62.09
79.29
96.59
112.53
126.30
137.83
147.58
155.91
162.93
168.27
171.42
171.92
169.65
164.67
156.98
146.37
132.45
115.03
94.46
71.64
47.83
24.09
1.01
-21.35
-42.98
-63.58
-82.20
-97.51
-108.33
-114.14
-115.27
-112.84
-108.21
-102.59
-96.76
-91.14
-85.99
-81.60
-78.25
-76.09
-74.97
-74.39
-73.64
-72.07
-69.39
-65.71
-61.45
-57.04
-52.74
-48.60
-44.47
-40.28
-36.03
-31.93
-28.22
-25.09
-22.55
-20.36
-18.04
-14.94
-10.46
-4.22
3.82
13.29
23.51
33.66
43.07
51.26
58.05
63.44
67.55
70.49
72.38
73.32
73.43
72.90
71.98
70.96
70.10
69.49
68.87
67.67
65.01
59.96
51.80
40.22
25.42
8.15
-10.49
-29.15
-46.44
-61.12
-72.20
-79.14
-81.95
-81.21
-77.88
-73.05
-67.69
-62.44
-57.60
-53.19
-49.13
-45.28
-41.51
-37.65
-33.49
-28.82
-23.55
-17.79
-11.85
-6.14
-1.05
3.16
6.46
8.91
10.59
11.48
11.41
10.20
7.80
4.44
0.71
-2.58
-4.63
-4.78
-2.80
1.22
6.85
13.49
20.41
26.87
32.22
35.90
37.59
37.18
34.75
30.59
25.09
18.67
11.79
4.83
-1.90
-8.27
-14.27
-19.95
-25.44
-30.85
-36.28
-41.89
-47.84
-54.24
-61.05
-67.94
-74.36
-79.63
-83.16
-84.59
-84.00
-81.71
-78.24
-74.11
-69.80
-65.74
-62.35
-60.05
-59.16
-59.78
-61.71
-64.42
-67.24
-69.52
-70.86
-71.12
-70.48
-69.17
-67.48
-65.63
-63.74
-61.90
-60.13
-58.44
-56.73
-54.91
-52.75
-50.00
-46.35
-41.61
-35.70
-28.82
-21.42
-14.07
-7.35
-1.63
2.95
6.44
8.92
10.50
11.25
11.28
10.92
10.59
10.79
11.79
13.53
15.61
17.47
18.65
18.96
18.60
17.92
17.20
16.50
15.62
14.37
12.71
11.00
9.74
9.48
10.40
12.25
14.47
16.41
17.59
17.89
17.41
16.41
15.13
13.67
12.07
10.40
8.75
7.28
6.14
5.40
5.04
4.95
4.99
5.03
5.06
5.13
5.26
5.38
5.31
4.84
3.89
2.61
1.42
0.79
1.14
2.58
4.92
7.73
10.47
12.73
14.23
14.88
14.75
14.06
13.11
12.22
11.69
11.66
12.12
12.91
13.82
14.64
15.28
15.69
15.82
15.62
15.06
14.20
13.24
12.46
12.20
12.73
14.17
16.50
19.63
23.37
27.54
31.95
36.39
40.63
44.51
47.94
51.00
53.98
57.25
61.22
66.19
72.26
79.39
87.46
96.35
105.93
116.04
126.36
136.43
145.63
153.20
158.30
160.06
157.66
150.61
138.85
122.80
103.20
80.81
56.25
29.86
1.92
-27.14
-56.58
-85.44
-112.69
-137.24
-158.05
-174.03
-184.14
-187.74
-184.95
-176.86
-165.47
-153.10
-141.78
-132.70
-126.18
-121.81
-118.94
-116.92
-115.19
-113.22
-110.42
-106.23
-100.32
-92.82
-84.25
-75.40
-67.01
-59.42
-52.52
-45.88
-39.08
-32.01
-24.97
-18.55
-13.33
-9.62
-7.29
-5.93
-4.98
-3.95
-2.56
-0.78
1.36
3.74
6.21
8.65
10.87
12.67
13.88
14.38
14.13
13.25
11.98
10.74
10.01
10.19
11.42
13.50
15.91
17.93
18.96
18.68
17.19
14.84
12.06
9.16
6.25
3.33
0.43
-2.30
-4.62
-6.26
-7.09
-7.20
-6.88
-6.51
-6.48
-7.13
-8.60
-10.85
-13.56
-16.15
-17.90
-18.19
-16.70
-13.54
-9.26
-4.58
-0.22
3.33
5.81
7.22
7.61
7.15
6.06
4.63
3.25
2.28
2.06
2.74
4.37
6.86
10.06
13.83
18.03
22.50
27.03
31.39
35.35
38.89
42.16
45.58
49.75
55.26
62.51
71.55
82.04
93.31
104.52
114.86
123.70
130.71
135.86
139.43
141.87
143.63
144.93
145.69
145.43
143.41
138.74
130.69
118.83
103.20
84.37
63.36
41.45
19.96
0.04
-17.54
-32.28
-43.98
-52.54
-58.03
-60.69
-61.02
-59.76
-57.82
-56.04
-55.06
-55.20
-56.52
-58.99
-62.55
-67.12
-72.51
-78.32
-84.01
-89.00
-92.94
-95.87
-98.23
-100.71
-103.97
-108.35
-113.80
-119.96
-126.38
-132.69
-138.63
-144.06
-148.83
-152.80
-155.87
-158.04
-159.35
-159.76
-158.93
-156.18
-150.68
-141.80
-129.51
-114.51
-97.98
-81.22
-65.13
-50.05
-35.91
-22.50
-9.77
2.00
12.43
21.19
28.20
33.61
37.68
40.58
42.40
43.19
43.06
42.27
41.21
40.26
39.68
39.54
39.70
39.98
40.15
40.02
39.40
38.15
36.26
33.82
31.17
28.74
26.96
26.08
26.08
26.71
27.60
28.42
28.90
28.92
28.41
27.44
26.26
25.39
25.62
27.92
33.20
41.95
54.14
69.28
86.72
106.02
126.95
149.21
171.84
192.96
209.95
220.18
221.96
215.16
201.14
182.18
160.75
139.09
119.30
103.59
94.03
91.82
96.19
103.82
109.27
106.55
91.17
61.85
21.12
-25.54
-71.33
-110.24
-138.43
-155.01
-161.82
-162.57
-161.67
-162.82
-167.99
-177.10
-188.33
-199.08
-206.79
-209.47
-205.81
-195.13
-177.41
-153.61
-125.72
-96.52
-68.89
-44.77
-24.64
-7.67
7.21
20.15
29.80
33.77
29.91
17.84
-0.47
-21.01
-39.10
-50.94
-54.68
-50.72
-41.32
-29.91
-20.29
-15.95
-19.45
-31.73
-51.69
-76.22
-100.81
-120.73
-132.27
-133.52
-124.63
-107.41
-84.65
-59.53
-34.92
-13.06
4.73
18.13
27.60
33.91
37.84
40.06
41.02
41.24
41.26
41.46
41.93
42.32
42.05
40.73
38.41
35.58
32.90
30.77
29.01
27.04
24.01
19.19
12.14
2.71
-9.10
-23.30
-39.86
-58.70
-79.48
-101.57
-124.15
-146.45
-168.05
-188.87
-208.81
-227.15
-242.12
-250.99
-250.84
-239.55
-216.92
-184.87
-147.07
-107.64
-70.04
-36.19
-6.39
20.42
46.06
72.79
103.11
139.33
182.48
230.87
279.19
318.93
340.62
337.34
307.89
258.01
198.79
142.87
100.09
74.75
65.33
66.62
72.75
79.57
85.45
90.59
95.76
101.14
106.14
109.69
110.87
109.58
106.52
102.82
99.48
96.93
95.12
93.78
92.86
92.73
94.01
97.05
101.53
106.33
109.69
109.89
105.92
98.08
88.13
78.97
73.44
73.20
77.78
84.36
88.80
87.21
77.41
59.52
35.59
8.25
-20.49
-49.68
-79.31
-109.51
-139.74
-168.65
-194.43
-215.60
-231.69
-243.43
-252.23
-259.34
-264.90
-267.82
-266.21
-258.47
-244.15
-224.12
-199.77
-171.94
-140.36
-103.90
-61.80
-14.88
34.07
80.99
121.90
154.24
177.38
192.21
200.23
202.70
200.04
192.15
178.80
160.34
138.12
114.28
91.12
70.39
52.78
38.06
25.78
15.99
9.51
7.59
11.20
20.30
33.81
50.03
67.18
83.69
97.85
107.34
109.26
101.13
82.29
54.90
23.84
-4.88
-26.16
-37.50
-39.35
-34.24
-25.21
-14.59
-3.64
7.14
17.29
26.18
32.97
37.15
38.92
39.14
38.97
39.15
39.53
38.90
35.73
29.08
19.55
9.55
2.68
2.63
12.03
31.82
61.16
97.84
138.39
178.27
212.11
234.45
241.15
230.66
204.75
168.05
126.48
85.33
48.01
15.63
-12.39
-37.40
-60.83
-84.09
-108.75
-136.62
-168.88
-205.01
-241.82
-273.88
-295.28
-301.99
-293.64
-273.58
-247.28
-220.01
-195.13
-174.03
-157.14
-145.14
-139.32
-140.88
-149.63
-163.43
-178.52
-190.79
-197.09
-195.73
-186.15
-168.41
-142.90
-110.39
-72.49
-31.56
9.64
48.61
83.55
113.54
138.38
158.55
175.43
191.39
209.56
233.01
263.48
300.50
341.21
381.27
416.12
442.29
457.95
462.80
457.57
443.56
422.41
396.00
366.34
335.41
305.04
276.65
251.21
229.09
210.05
193.31
177.80
162.47
146.67
130.28
113.53
96.73
79.98
63.05
45.55
27.06
7.40
-13.21
-34.26
-55.10
-75.13
-93.97
-111.54
-127.99
-143.62
-158.78
-173.80
-188.87
-203.89
-218.32
-231.14
-240.95
-246.34
-246.45
-241.17
-231.33
-218.44
-204.23
-190.22
-177.41
-166.25
-156.77
-148.85
-142.37
-137.32
-133.82
-131.98
-131.89
-133.50
-136.61
-140.99
-146.65
-153.87
-163.15
-175.02
-189.58
-206.26
-223.82
-240.66
-255.33
-266.94
-275.34
-280.93
-284.42
-286.54
-288.00
-289.68
-292.47
-296.92
-302.59
-307.65
-309.20
-304.35
-291.44
-271.01
-245.58
-218.56
-192.72
-169.09
-147.00
-125.09
-102.54
-79.98
-59.32
-42.86
-32.19
-27.55
-27.84
-31.17
-35.46
-39.00
-40.56
-39.50
-35.61
-29.08
-20.50
-10.84
-1.28
6.98
13.09
16.59
17.60
16.64
14.51
12.05
10.11
9.43
10.67
14.25
20.16
27.73
35.46
41.28
42.98
39.01
29.20
15.21
0.30
-11.57
-16.89
-13.70
-1.99
16.67
40.05
66.04
92.95
119.23
142.97
161.89
173.66
176.79
171.40
159.30
143.51
127.33
113.58
104.03
99.40
99.34
102.63
107.44
111.75
113.99
113.51
110.71
106.71
102.80
99.72
97.44
95.26
92.23
87.71
81.83
75.68
71.14
70.33
74.69
84.19
97.06
110.18
120.36
125.58
125.91
123.27
120.56
120.22
123.54
130.53
140.44
152.31
165.11
177.50
187.77
194.25
196.25
194.77
192.20
190.89
191.31
191.32
187.29
176.46
159.34
140.17
125.19
119.39
123.88
135.35
147.94
156.28
157.72
152.70
143.24
130.92
115.87
97.20
74.41
48.65
22.70
0.01
-16.84
-27.43
-33.82
-39.77
-49.29
-65.07
-87.29
-113.55
-139.70
-161.27
-175.12
-180.45
-178.69
-172.61
-164.92
-157.34
-150.38
-143.91
-137.84
-132.54
-128.57
-126.17
-124.78
-123.11
-119.75
-113.88
-105.68
-96.25
-87.16
-79.68
-74.40
-71.22
-69.49
-68.48
-67.46
-65.77
-62.66
-57.39
-49.39
-38.57
-25.69
-12.12
0.49
10.93
18.70
24.08
27.67
29.98
31.25
31.69
31.74
32.11
33.33
35.15
36.28
34.71
28.84
18.55
5.68
-6.64
-15.51
-19.50
-19.26
-16.89
-14.65
-13.75
-13.93
-14.15
-13.39
-11.50
-9.12
-7.21
-6.36
-6.42
-6.86
-7.16
-7.33
-7.81
-9.24
-11.83
-15.26
-18.78
-21.57
-23.16
-23.57
-23.23
-22.67
-22.30
-22.30
-22.66
-23.29
-24.03
-24.63
-24.85
-24.46
-23.38
-21.89
-20.48
-19.77
-20.20
-21.76
-24.02
-26.23
-27.68
-27.98
-27.12
-25.42
-23.24
-20.87
-18.46
-16.18
-14.32
-13.34
-13.78
-15.87
-19.40
-23.64
-27.67
-30.73
-32.70
-34.14
-36.10
-39.61
-45.07
-52.07
-59.48
-66.00
-70.78
-73.69
-75.35
-76.80
-79.00
-82.55
-87.71
-94.41
-102.34
-110.83
-118.69
-124.30
-126.00
-122.76
-114.69
-103.29
-90.97
-80.29
-73.18
-70.51
-72.03
-76.67
-82.82
-88.53
-91.56
-89.53
-80.31
-62.70
-36.98
-5.22
29.02
61.57
88.62
107.71
118.10
120.66
117.36
110.78
103.53
97.85
95.34
96.64
101.38
108.30
115.65
121.66
125.03
124.98
121.27
114.09
104.05
92.30
80.48
70.43
63.64
60.75
61.31
63.89
66.71
68.15
67.12
63.36
57.40
50.42
43.82
38.83
35.97
34.81
34.07
32.13
27.76
20.80
12.36
4.46
-0.76
-1.94
0.89
6.25
11.70
14.74
13.72
8.58
0.78
-7.23
-13.02
-15.15
-13.54
-9.30
-3.91
1.55
6.79
12.33
18.90
27.02
36.50
46.64
56.41
64.90
71.52
76.04
78.56
79.42
79.10
78.06
76.71
75.27
73.78
72.26
70.85
69.84
69.66
70.58
72.48
74.65
75.93
74.90
70.36
61.68
49.23
34.28
18.87
5.21
-5.03
-11.29
-14.25
-15.47
-16.66
-18.94
-22.44
-26.52
-30.34
-33.48
-36.17
-39.13
-42.82
-47.04
-50.89
-53.19
-53.13
-50.73
-46.83
-42.60
-38.94
-35.97
-32.98
-28.87
-22.76
-14.59
-5.40
2.89
8.06
8.51
3.99
-3.88
-11.93
-16.29
-13.92
-3.99
11.46
27.91
40.04
43.61
37.10
21.90
1.49
-20.21
-40.26
-57.37
-71.73
-84.30
-96.17
-108.03
-119.83
-130.48
-137.76
-138.72
-130.55
-111.98
-84.25
-51.36
-19.05
6.92
22.47
26.29
19.77
6.17
-10.58
-26.79
-39.66
-47.28
-48.62
-43.37
-32.01
-15.85
2.93
21.51
36.90
46.73
50.05
47.66
41.89
35.75
31.81
31.32
33.95
38.16
41.99
43.96
43.49
40.82
36.63
31.49
25.67
19.26
12.41
5.55
-0.62
-5.44
-8.78
-11.09
-13.28
-16.26
-20.47
-25.74
-31.44
-36.95
-41.90
-46.28
-50.11
-53.26
-55.19
-55.19
-52.77
-47.90
-41.23
-33.80
-26.71
-20.73
-16.20
-13.12
-11.33
-10.72
-11.23
-12.78
-15.10
-17.71
-19.96
-21.35
-21.77
-21.56
-21.38
-21.83
-23.19
-25.26
-27.53
-29.43
-30.71
-31.54
-32.33
-33.40
-34.66
-35.58
-35.39
-33.49
-29.77
-24.58
-18.58
-12.22
-5.68
1.19
8.61
16.59
24.79
32.63
39.61
45.54
50.72
55.76
61.37
67.97
75.52
83.50
91.26
98.31
104.51
109.82
113.88
115.95
115.13
111.15
105.09
99.23
96.14
97.14
101.00
104.05
101.52
89.75
67.86
38.13
4.99
-26.88
-53.91
-74.43
-88.44
-97.06
-102.27
-106.76
-113.69
-125.75
-143.92
-166.52
-189.34
-207.08
-215.38
-212.63
-200.40
-182.56
-163.73
-147.88
-137.45
-133.36
-135.18
-141.28
-148.95
-154.69
-154.90
-146.92
-129.98
-105.55
-76.94
-48.28
-23.21
-3.84
9.74
19.18
26.94
35.07
44.26
53.70
61.61
66.31
67.02
64.21
59.14
53.27
47.73
43.13
39.72
37.66
37.07
37.85
39.52
41.28
42.25
41.88
40.27
38.11
36.26
35.24
34.84
34.28
32.59
29.23
24.41
19.02
14.11
10.39
7.98
6.51
5.62
5.13
5.14
5.65
6.33
6.48
5.45
3.11
0.12
-2.33
-3.27
-2.49
-0.86
0.05
-1.18
-5.08
-10.98
-17.41
-22.86
-26.51
-28.51
-29.67
-30.87
-32.48
-34.23
-35.39
-35.21
-33.25
-29.36
-23.63
-16.25
-7.63
1.42
9.76
16.20
20.11
21.83
22.76
24.73
29.22
36.69
46.48
57.21
67.54
76.68
84.48
91.20
97.14
102.51
107.56
112.67
118.42
125.28
133.37
142.27
151.21
159.38
166.06
170.41
170.99
165.48
150.82
124.22
84.34
32.40
-27.62
-89.62
-146.82
-193.37
-225.54
-242.22
-244.61
-235.56
-218.56
-197.01
-173.71
-150.56
-128.67
-108.44
-89.79
-72.36
-55.70
-39.53
-23.92
-9.42
3.04
12.39
17.90
19.45
17.72
13.98
9.72
6.23
4.26
4.06
5.50
8.29
12.21
17.18
23.27
30.54
38.88
47.96
57.16
65.66
72.64
77.49
80.09
80.82
80.43
79.74
79.26
79.13
79.16
79.06
78.71
78.12
77.36
76.27
74.42
71.26
66.42
60.04
52.96
46.41
41.68
39.54
40.10
42.73
46.45
50.23
53.28
55.19
55.83
55.25
53.59
51.08
48.01
44.78
41.75
39.21
37.31
35.99
35.02
34.13
33.02
31.42
29.20
26.31
22.84
18.89
14.55
9.97
5.38
1.26
-1.67
-2.62
-0.99
3.31
9.72
17.15
24.33
30.16
34.04
35.86
35.90
34.60
32.41
29.74
26.98
24.51
22.53
21.14
20.19
19.43
18.56
17.42
15.94
14.16
12.11
9.72
6.85
3.36
-0.66
-4.87
-8.65
-11.25
-12.04
-10.66
-7.19
-2.06
4.04
10.40
16.34
21.30
24.85
26.76
27.09
26.16
24.54
22.90
21.75
21.34
21.61
22.21
22.72
22.80
22.26
21.11
19.50
17.59
15.55
13.45
11.29
8.90
6.05
2.54
-1.61
-6.04
-10.10
-12.94
-13.80
-12.30
-8.56
-3.16
3.11
9.45
15.25
20.11
23.85
26.39
27.77
28.14
27.77
27.05
26.31
25.82
25.64
25.71
25.82
25.75
25.36
24.57
23.40
21.90
20.21
18.46
16.75
15.12
13.43
11.46
8.84
5.25
0.53
-5.16
-11.34
-17.27
-22.16
-25.45
-26.94
-26.87
-25.76
-24.17
-22.47
-20.87
-19.41
-18.18
-17.40
-17.36
-18.24
-19.88
-21.75
-23.08
-23.26
-22.04
-19.58
-16.33
-12.63
-8.60
-4.16
0.69
5.66
10.19
13.81
16.41
18.48
20.85
24.39
29.48
35.98
43.36
51.10
59.00
67.39
76.86
88.24
102.30
119.71
140.67
164.56
189.56
212.63
230.07
238.53
236.19
223.49
203.03
178.62
154.05
131.85
113.02
97.13
83.06
69.67
56.16
42.23
28.00
13.97
0.91
-10.24
-18.71
-24.11
-26.57
-26.67
-25.18
-22.79
-20.05
-17.40
-15.34
-14.46
-15.17
-17.56
-21.21
-25.24
-28.69
-30.89
-31.65
-31.24
-30.19
-28.98
-27.90
-27.10
-26.60
-26.43
-26.68
-27.50
-29.02
-31.35
-34.34
-37.73
-41.10
-43.97
-45.99
-47.07
-47.44
-47.57
-48.03
-49.19
-51.09
-53.34
-55.33
-56.45
-56.41
-55.34
-53.63
-51.82
-50.23
-48.92
-47.73
-46.38
-44.70
-42.73
-40.64
-38.69
-37.09
-35.93
-35.11
-34.48
-33.89
-33.26
-32.63
-32.10
-31.68
-31.29
-30.71
-29.80
-28.60
-27.37
-26.52
-26.28
-26.58
-27.08
-27.38
-27.31
-26.98
-26.73
-26.89
-27.51
-28.35
-28.94
-28.91
-28.14
-26.80
-25.28
-23.96
-23.14
-22.93
-23.34
-24.27
-25.55
-26.97
-28.32
-29.43
-30.30
-31.12
-32.14
-33.66
-35.84
-38.65
-41.75
-44.65
-46.74
-47.49
-46.57
-43.88
-39.68
-34.43
-28.65
-22.76
-16.98
-11.31
-5.62
0.25
6.42
12.84
19.24
25.13
29.74
32.20
31.72
27.79
20.39
10.04
-2.37
-15.64
-28.51
-39.79
-48.43
-53.73
-55.53
-54.38
-51.50
-48.50
-46.79
-47.11
-49.26
-52.31
-55.11
-56.97
-57.84
-58.23
-58.74
-59.61
-60.60
-61.23
-61.11
-60.25
-59.02
-57.90
-57.15
-56.77
-56.51
-56.10
-55.50
-54.81
-54.25
-53.93
-53.89
-54.08
-54.57
-55.63
-57.68
-61.03
-65.54
-70.36
-74.16
-75.64
-74.20
-70.37
-65.58
-61.69
-60.37
-62.69
-69.09
-79.41
-92.84
-107.71
-121.34
-130.40
-131.83
-124.03
-107.68
-85.79
-62.75
-42.85
-28.96
-21.73
-19.69
-20.16
-20.41
-18.83
-15.38
-11.31
-8.11
-6.43
-5.54
-3.74
0.60
7.95
17.39
27.12
35.50
41.97
47.00
51.39
55.37
58.16
58.31
54.67
47.10
36.80
25.89
16.53
10.24
7.54
8.01
10.72
14.53
18.46
21.88
24.42
26.00
26.69
26.63
26.03
25.08
24.01
22.99
22.17
21.59
21.17
20.75
20.16
19.33
18.34
17.39
16.73
16.50
16.63
16.84
16.73
15.99
14.59
12.97
11.94
12.43
15.10
20.06
26.76
34.20
41.28
47.20
51.58
54.37
55.59
55.02
52.30
47.13
39.56
30.24
20.29
11.05
3.64
-1.36
-4.01
-4.88
-4.74
-4.30
-4.09
-4.42
-5.44
-7.15
-9.37
-11.57
-12.92
-12.55
-9.98
-5.59
-0.65
2.98
3.64
0.66
-5.37
-12.82
-19.81
-24.97
-27.94
-29.20
-29.59
-29.71
-29.63
-29.07
-27.80
-25.96
-24.12
-23.02
-23.21
-24.72
-27.16
-29.97
-32.77
-35.62
-38.86
-42.90
-47.80
-53.10
-57.72
-60.31
-59.66
-55.17
-47.16
-36.76
-25.65
-15.43
-7.23
-1.45
2.05
3.62
3.60
2.10
-0.74
-4.55
-8.66
-12.25
-14.71
-15.96
-16.43
-16.85
-17.90
-19.96
-23.08
-27.10
-31.81
-36.93
-42.07
-46.64
-49.85
-51.03
-49.78
-46.07
-40.26
-32.86
-24.45
-15.59
-6.89
0.89
7.01
10.90
12.41
11.88
10.09
7.94
6.20
5.28
5.20
5.69
6.41
7.08
7.55
7.72
7.39
6.19
3.55
-1.06
-7.84
-16.31
-25.30
-33.23
-38.55
-40.29
-38.39
-33.64
-27.54
-21.84
-18.13
-17.47
-20.17
-25.73
-33.07
-40.98
-48.54
-55.38
-61.69
-67.84
-73.97
-79.69
-83.92
-85.14
-81.82
-72.92
-58.54
-40.21
-20.81
-3.90
7.36
11.48
9.31
3.88
-0.64
-0.47
6.51
20.29
39.05
60.08
80.68
98.72
112.75
121.97
126.04
125.17
120.12
112.23
103.15
94.47
87.32
82.14
78.74
76.50
74.65
72.46
69.32
64.75
58.44
50.25
40.40
29.43
18.17
7.60
-1.33
-7.81
-11.35
-11.75
-9.30
-4.78
0.61
5.47
8.63
9.47
8.17
5.49
2.45
-0.22
-2.20
-3.63
-4.81
-5.88
-6.71
-6.99
-6.42
-4.96
-2.89
-0.70
1.12
2.06
1.73
-0.23
-3.99
-9.32
-15.33
-20.55
-23.12
-21.48
-14.99
-4.28
8.90
22.25
33.73
42.08
46.99
48.79
48.11
45.51
41.50
36.56
31.29
26.37
22.41
19.75
18.28
17.56
16.94
15.94
14.37
12.30
9.90
7.17
3.83
-0.43
-5.66
-11.27
-15.90
-17.93
-16.09
-10.10
-0.94
9.57
19.46
27.45
33.14
36.89
39.37
40.93
41.59
41.14
39.52
37.04
34.31
31.85
29.87
28.17
26.21
23.50
19.86
15.45
10.70
5.95
1.31
-3.46
-8.76
-14.92
-21.80
-28.72
-34.45
-37.58
-36.88
-31.78
-22.51
-10.08
4.05
18.42
31.82
43.40
52.66
59.37
63.42
65.01
64.53
62.69
60.35
58.28
57.03
56.79
57.42
58.57
59.73
60.40
60.21
58.89
56.30
52.43
47.37
41.38
34.90
28.62
23.46
20.39
20.26
23.39
29.49
37.57
46.23
54.02
59.81
63.10
64.00
63.03
60.88
58.12
55.15
52.29
49.85
48.22
47.69
48.33
49.73
51.07
51.29
49.48
45.18
38.52
30.08
20.62
10.75
0.84
-8.78
-17.66
-24.96
-29.60
-30.60
-27.49
-20.75
-11.71
-2.18
6.12
12.12
15.53
16.70
16.14
14.18
10.81
5.85
-0.70
-8.51
-16.85
-24.90
-31.95
-37.70
-42.20
-45.72
-48.57
-50.94
-52.89
-54.43
-55.56
-56.30
-56.66
-56.51
-55.53
-53.27
-49.19
-42.95
-34.59
-24.66
-14.21
-4.51
3.33
8.63
11.30
11.79
10.73
8.76
6.27
3.52
0.67
-1.99
-4.06
-5.13
-4.89
-3.28
-0.54
2.92
6.56
9.91
12.60
14.37
15.07
14.64
13.12
10.73
8.00
5.66
4.64
5.69
9.16
14.72
21.50
28.38
34.38
39.01
42.35
44.86
47.04
49.21
51.35
53.26
54.72
55.71
56.39
57.04
57.89
58.97
60.16
61.25
61.97
62.15
61.75
60.86
59.66
58.41
57.34
56.62
56.29
56.20
56.04
55.49
54.28
52.41
50.11
47.86
46.32
46.13
47.75
51.28
56.37
62.16
67.43
71.00
71.99
70.22
66.16
60.74
54.88
49.21
43.71
38.00
31.56
23.96
15.16
5.33
-5.17
-15.91
-26.45
-36.37
-45.30
-53.05
-59.67
-65.44
-70.67
-75.38
-78.93
-80.03
-76.99
-68.45
-54.09
-35.06
-13.81
6.62
23.54
35.21
41.11
41.75
38.32
32.44
25.92
20.54
17.58
17.44
19.29
21.30
21.33
17.76
10.21
-0.22
-11.24
-19.93
-23.62
-20.81
-11.81
0.97
13.59
21.86
22.80
15.78
2.61
-13.44
-29.03
-41.93
-51.47
-58.15
-62.80
-66.07
-68.24
-69.44
-69.95
-70.15
-70.39
-70.63
-70.40
-68.94
-65.64
-60.37
-53.65
-46.44
-39.76
-34.34
-30.37
-27.56
-25.32
-23.16
-20.86
-18.61
-16.76
-15.62
-15.16
-14.95
-14.32
-12.61
-9.53
-5.27
-0.46
4.12
7.91
10.64
12.40
13.37
13.69
13.30
12.10
9.96
6.91
3.10
-1.22
-5.79
-10.39
-14.77
-18.74
-22.08
-24.67
-26.50
-27.62
-28.18
-28.26
-27.89
-26.99
-25.40
-22.86
-19.21
-14.70
-10.14
-6.87
-6.24
-8.92
-14.37
-20.91
-26.29
-28.51
-26.51
-20.18
-10.14
2.85
18.08
34.75
51.73
67.59
80.85
90.51
96.46
99.39
100.30
99.95
98.54
95.87
91.77
86.54
81.16
77.23
76.37
79.72
87.46
98.94
112.97
128.39
144.30
160.22
175.67
189.94
201.97
210.58
214.75
213.86
207.78
196.69
181.13
161.99
140.62
118.78
98.41
81.01
67.28
57.00
49.30
43.14
37.80
32.93
28.40
24.03
19.40
13.80
6.52
-2.95
-14.76
-28.57
-43.65
-59.01
-73.64
-86.80
-98.11
-107.54
-115.30
-121.62
-126.75
-130.95
-134.70
-138.60
-143.31
-149.20
-156.13
-163.44
-170.15
-175.30
-178.23
-178.73
-176.88
-172.94
-167.22
-160.02
-151.74
-142.86
-133.97
-125.54
-117.78
-110.43
-102.87
-94.33
-84.35
-72.99
-60.94
-49.28
-39.00
-30.72
-24.42
-19.56
-15.40
-11.32
-7.02
-2.56
1.84
6.03
10.00
13.86
17.61
21.05
23.69
24.87
24.09
21.19
16.45
10.45
3.87
-2.76
-9.01
-14.51
-18.87
-21.60
-22.41
-21.29
-18.76
-15.70
-13.05
-11.54
-11.45
-12.67
-14.81
-17.51
-20.56
-23.89
-27.51
-31.32
-35.04
-38.25
-40.58
-41.82
-42.13
-41.90
-41.62
-41.68
-42.19
-43.05
-44.06
-45.04
-45.95
-46.82
-47.60
-48.12
-48.12
-47.25
-45.27
-42.08
-37.82
-32.86
-27.74
-23.12
-19.47
-17.07
-15.84
-15.41
-15.36
-15.40
-15.54
-16.05
-17.34
-19.69
-23.25
-27.99
-33.80
-40.50
-47.70
-54.79
-60.88
-65.23
-67.59
-68.63
-69.80
-72.82
-78.81
-87.66
-97.92
-107.48
-114.53
-118.37
-119.72
-120.13
-121.22
-123.88
-127.99
-132.65
-136.70
-139.26
-139.89
-138.54
-135.20
-129.69
-121.62
-110.52
-96.22
-79.08
-60.04
-40.46
-21.71
-4.74
10.08
22.83
33.87
43.51
51.90
59.03
64.96
69.82
73.85
77.22
79.99
81.99
82.96
82.65
80.94
77.83
73.57
68.54
63.25
58.29
54.17
51.13
49.07
47.53
45.89
43.52
40.14
35.77
30.82
25.86
21.50
18.20
16.20
15.47
15.78
16.76
18.12
19.73
21.67
24.14
27.33
31.23
35.60
40.03
44.03
47.16
49.10
49.63
48.61
46.13
42.58
38.63
35.19
33.12
33.08
35.24
39.35
44.73
50.52
55.83
59.91
62.27
62.80
61.74
59.66
57.31
55.35
54.24
54.08
54.74
56.04
57.98
60.91
65.45
72.31
81.90
94.04
107.84
121.79
134.28
144.03
150.61
154.58
157.32
160.50
165.60
173.52
184.29
197.09
210.32
221.71
228.67
228.72
220.02
201.99
175.39
142.15
104.84
66.02
27.73
-8.82
-43.11
-75.20
-105.65
-135.30
-165.41
-197.50
-233.33
-274.37
-320.94
-371.28
-420.98
-463.63
-492.43
-502.64
-493.33
-467.92
-432.71
-394.43
-357.82
-324.49
-293.38
-262.54
-230.72
-198.25
-166.57
-137.24
-110.98
-87.45
-65.66
-44.69
-24.29
-4.98
12.28
26.50
36.91
42.96
43.99
39.11
27.20
7.45
-19.80
-52.28
-85.61
-114.24
-133.30
-140.67
-137.86
-129.19
-119.40
-111.03
-103.21
-92.69
-76.44
-54.30
-29.69
-7.95
6.82
14.38
18.71
26.00
41.43
66.60
98.94
133.24
163.98
187.45
202.38
209.68
211.23
209.14
205.23
200.90
197.19
194.60
193.02
191.65
189.22
184.32
175.78
163.01
146.19
126.31
105.12
84.85
67.73
55.39
48.38
46.03
46.71
48.58
50.26
51.16
51.39
51.28
50.98
50.17
48.26
44.72
39.42
32.83
25.86
19.56
14.88
12.40
12.42
14.88
19.49
25.68
32.56
39.02
43.84
45.92
44.68
40.19
33.29
25.37
18.03
12.61
9.91
10.02
12.44
16.32
20.73
24.83
27.95
29.63
29.54
27.52
23.76
18.81
13.63
9.33
6.77
6.25
7.33
9.02
10.18
10.03
8.26
5.06
0.84
-3.99
-8.92
-13.40
-16.54
-17.35
-14.97
-9.06
0.21
12.03
25.33
38.90
51.45
61.63
68.01
69.26
64.39
53.17
36.18
14.79
-9.24
-34.30
-59.30
-83.77
-107.55
-130.42
-151.71
-170.31
-185.12
-195.45
-201.32
-203.30
-202.09
-198.08
-191.22
-181.25
-168.10
-152.07
-133.92
-114.59
-95.06
-76.14
-58.49
-42.50
-28.29
-15.68
-4.22
6.54
16.86
26.71
35.87
44.07
51.18
57.28
62.51
66.87
70.18
72.17
72.63
71.63
69.58
67.07
64.76
63.11
62.29
62.34
63.13
64.56
66.53
68.86
71.28
73.35
74.65
74.82
73.72
71.44
68.24
64.44
60.39
56.35
52.56
49.08
45.86
42.80
39.71
36.58
33.44
30.41
27.56
24.83
22.04
19.07
15.98
13.04
10.69
9.32
9.06
9.74
11.01
12.47
13.83
14.98
15.80
16.28
16.31
15.84
14.84
13.40
11.61
9.56
7.32
4.93
2.52
0.28
-1.58
-2.89
-3.60
-3.81
-3.71
-3.58
-3.66
-4.09
-4.92
-6.03
-7.16
-7.97
-8.10
-7.30
-5.53
-2.94
0.19
3.47
6.56
9.15
10.99
11.95
12.03
11.36
10.13
8.63
7.09
5.71
4.59
3.76
3.16
2.72
2.33
1.90
1.33
0.52
-0.60
-2.09
-3.96
-6.07
-8.09
-9.56
-10.06
-9.34
-7.53
-5.04
-2.46
-0.30
1.21
2.10
2.60
2.91
3.06
2.97
2.52
1.71
0.66
-0.38
-1.21
-1.72
-1.97
-2.10
-2.26
-2.57
-3.08
-3.78
-4.68
-5.75
-6.96
-8.18
-9.22
-9.82
-9.75
-8.86
-7.21
-5.04
-2.70
-0.60
0.99
1.96
2.37
2.36
2.04
1.48
0.68
-0.36
-1.58
-2.83
-3.90
-4.59
-4.83
-4.65
-4.22
-3.76
-3.44
-3.38
-3.57
-3.95
-4.44
-4.98
-5.46
-5.74
-5.62
-4.84
-3.25
-0.84
2.17
5.42
8.51
11.11
13.07
14.39
15.21
15.67
15.91
16.06
16.21
16.50
17.05
17.98
19.34
21.07
22.98
24.84
26.45
27.69
28.60
29.26
29.76
30.20
30.65
31.20
32.06
33.50
35.86
39.46
44.51
51.07
58.96
67.81
77.05
86.09
94.45
101.83
108.38
114.50
120.81
127.78
135.47
143.27
149.98
153.95
153.62
147.95
136.83
121.19
102.72
83.43
65.09
48.87
35.15
23.66
13.80
5.04
-2.90
-10.06
-16.36
-21.72
-26.12
-29.33
-30.82
-29.65
-24.83
-15.70
-2.44
13.84
31.34
48.13
62.78
74.62
83.74
90.64
95.87
99.74
102.31
103.46
103.00
100.80
96.85
91.16
83.82
75.03
65.09
54.41
43.44
32.57
21.99
11.68
1.43
-8.99
-19.71
-30.70
-41.75
-52.61
-63.01
-72.71
-81.43
-88.82
-94.55
-98.33
-100.07
-100.04
-98.73
-96.74
-94.56
-92.31
-89.72
-86.24
-81.30
-74.68
-66.80
-58.58
-51.29
-46.06
-43.45
-43.43
-45.51
-49.07
-53.52
-58.40
-63.09
-66.83
-68.82
-68.67
-66.72
-64.03
-61.96
-61.48
-62.78
-65.24
-67.95
-70.31
-72.37
-74.61
-77.65
-81.75
-86.72
-92.24
-98.01
-104.05
-110.58
-117.76
-125.42
-132.74
-138.42
-140.97
-139.25
-132.95
-122.81
-110.39
-97.61
-86.22
-77.46
-72.10
-70.52
-72.71
-78.13
-85.53
-93.10
-99.06
-102.32
-102.95
-102.01
-100.86
-100.38
-100.51
-100.58
-99.91
-98.29
-96.22
-94.39
-93.16
-92.23
-90.70
-87.54
-82.09
-74.35
-64.85
-54.49
-44.05
-34.11
-24.96
-16.75
-9.66
-3.99
-0.00
2.14
2.57
1.76
0.45
-0.58
-0.74
0.19
2.02
4.26
6.33
7.80
8.42
8.09
6.83
4.59
1.32
-2.87
-7.59
-12.13
-15.59
-17.20
-16.65
-14.24
-10.80
-7.43
-5.17
-4.65
-6.06
-9.18
-13.52
-18.53
-23.67
-28.54
-32.88
-36.58
-39.47
-41.29
-41.63
-40.03
-36.20
-30.21
-22.65
-14.57
-7.29
-2.05
0.27
-0.51
-3.76
-8.06
-11.55
-12.46
-9.60
-2.77
7.34
19.38
31.78
43.11
52.23
58.24
60.50
58.68
52.80
43.32
31.12
17.47
3.91
-7.84
-16.13
-19.61
-17.75
-11.16
-1.47
9.05
18.20
24.45
27.23
26.82
24.02
19.86
15.30
11.23
8.33
6.95
7.04
8.15
9.58
10.72
11.17
10.83
9.82
8.31
6.48
4.48
2.54
0.92
-0.14
-0.43
0.16
1.79
4.56
8.40
12.87
16.96
19.22
18.17
12.85
3.34
-9.13
-22.48
-34.43
-43.04
-47.12
-46.30
-40.94
-31.91
-20.47
-8.12
3.64
13.51
20.69
25.03
27.04
27.65
27.87
28.49
29.90
32.00
34.45
36.89
39.09
41.01
42.79
44.47
45.91
46.75
46.52
44.88
41.77
37.59
33.08
29.23
26.96
26.85
29.08
33.29
38.73
44.35
49.01
51.68
51.69
48.94
43.90
37.59
31.26
25.97
22.26
19.89
17.91
15.05
10.28
3.28
-5.29
-14.18
-22.10
-28.46
-33.74
-39.24
-46.39
-55.80
-66.66
-76.83
-83.70
-85.17
-80.78
-71.93
-61.40
-52.29
-46.91
-46.02
-48.64
-52.58
-55.29
-54.94
-51.09
-44.94
-38.89
-35.75
-37.60
-44.68
-54.86
-64.11
-67.93
-63.29
-50.40
-33.08
-17.80
-11.26
-18.11
-39.50
-72.82
-112.76
-152.88
-187.39
-212.84
-229.41
-241.02
-254.07
-273.98
-301.61
-331.00
-350.56
-347.48
-313.53
-249.04
-163.14
-69.90
17.05
88.87
142.58
179.47
202.41
213.84
215.41
208.58
195.34
178.31
160.23
143.14
127.95
114.55
102.11
89.82
77.57
66.26
57.77
54.27
57.12
66.00
78.52
90.89
99.30
101.47
97.31
88.77
78.77
69.88
63.44
59.29
56.25
52.89
48.22
42.00
34.74
27.28
20.40
14.43
9.22
4.26
-0.99
-6.72
-12.54
-17.49
-20.32
-19.94
-15.85
-8.33
1.59
12.49
22.92
31.73
38.20
42.06
43.35
42.36
39.56
35.53
30.96
26.54
22.80
20.08
18.38
17.51
17.02
16.45
15.38
13.60
11.08
7.87
4.02
-0.38
-5.07
-9.49
-12.74
-13.83
-11.90
-6.69
1.41
11.40
22.04
32.12
40.70
47.16
51.17
52.67
51.86
49.26
45.65
41.89
38.72
36.57
35.52
35.36
35.76
36.36
36.85
37.02
36.73
35.93
34.64
33.04
31.44
30.33
30.32
31.98
35.63
41.31
48.66
57.10
65.99
74.75
82.96
90.29
96.51
101.57
105.73
109.62
114.08
119.95
127.69
137.27
148.14
159.41
170.01
178.78
184.44
185.84
182.08
172.86
158.67
140.76
120.81
100.56
81.39
64.11
48.94
35.66
23.87
13.18
3.43
-5.31
-12.90
-19.25
-24.49
-28.95
-32.98
-36.66
-39.76
-41.76
-42.20
-40.96
-38.27
-34.69
-30.70
-26.62
-22.46
-18.06
-13.36
-8.45
-3.66
0.64
4.09
6.54
7.94
8.32
7.73
6.28
4.20
1.86
-0.30
-1.94
-2.89
-3.18
-3.03
-2.67
-2.26
-1.93
-1.74
-1.78
-2.12
-2.70
-3.33
-3.69
-3.48
-2.53
-0.83
1.42
3.95
6.42
8.53
10.07
10.97
11.31
11.22
10.77
9.83
7.99
4.69
-0.58
-7.94
-16.97
-26.76
-36.17
-44.22
-50.26
-54.06
-55.67
-55.16
-52.52
-47.61
-40.31
-30.61
-18.69
-5.00
9.84
25.07
40.00
54.14
67.21
79.26
90.50
101.20
111.48
121.33
130.60
139.05
146.52
152.96
158.52
163.50
168.33
173.29
178.18
181.89
182.29
176.63
162.36
138.22
104.82
64.71
21.73
-20.04
-57.18
-87.53
-110.27
-125.67
-134.82
-139.20
-140.49
-140.24
-139.62
-139.34
-139.70
-140.77
-142.52
-144.82
-147.36
-149.65
-151.18
-151.52
-150.51
-148.24
-144.77
-140.00
-133.65
-125.44
-115.43
-104.27
-93.02
-82.79
-74.27
-67.40
-61.49
-55.71
-49.49
-42.82
-36.21
-30.23
-25.21
-20.96
-16.87
-12.25
-6.64
-0.01
7.30
14.81
22.19
29.40
36.58
43.98
51.71
59.63
67.56
75.34
83.00
90.75
98.84
107.37
116.27
125.34
134.39
143.41
152.53
161.96
171.82
182.10
192.56
202.90
212.76
221.83
229.82
236.51
241.68
245.10
246.49
245.44
241.49
234.18
223.38
209.51
193.66
177.38
162.26
149.14
137.79
126.80
114.19
98.16
77.81
53.45
26.20
-2.50
-31.62
-60.69
-89.56
-118.01
-145.34
-170.46
-192.28
-210.14
-224.12
-234.90
-243.35
-250.13
-255.42
-259.03
-260.67
-260.28
-258.13
-254.67
-250.43
-245.88
-241.43
-237.45
-234.23
-231.83
-229.96
-228.04
-225.44
-221.74
-216.92
-211.34
-205.49
-199.74
-194.03
-187.79
-180.10
-169.93
-156.63
-140.34
-122.29
-104.82
-90.91
-83.47
-84.53
-94.73
-113.16
-137.62
-164.93
-191.21
-212.34
-224.53
-225.13
-213.38
-190.71
-160.33
-126.33
-92.50
-61.35
-33.79
-9.31
13.30
35.33
57.64
80.50
103.60
126.06
146.64
164.02
177.09
185.35
188.96
188.51
184.70
178.07
168.83
157.09
143.33
128.58
114.27
101.61
91.04
82.01
73.49
64.56
55.09
45.75
37.49
30.94
25.99
21.94
17.87
13.11
7.39
0.79
-6.44
-14.11
-22.12
-30.50
-39.23
-48.06
-56.25
-62.52
-65.22
-62.89
-54.93
-42.04
-26.18
-9.85
4.95
17.35
27.52
35.99
42.71
46.59
45.81
38.97
26.13
9.32
-7.99
-22.23
-31.24
-34.93
-35.20
-34.68
-35.38
-37.90
-41.28
-43.86
-44.16
-41.57
-36.44
-29.71
-22.44
-15.40
-9.17
-4.14
-0.65
1.10
1.34
0.76
0.43
1.38
4.13
8.47
13.64
18.69
23.03
26.66
29.98
33.48
37.35
41.33
44.95
47.89
50.19
52.23
54.42
56.78
58.93
60.17
60.00
58.41
56.03
53.83
52.89
53.94
57.15
62.00
67.28
71.10
71.18
65.33
52.16
31.83
6.33
-20.82
-45.61
-64.80
-76.98
-82.68
-83.82
-82.60
-80.51
-78.13
-75.42
-72.29
-69.08
-66.32
-64.36
-62.95
-61.21
-58.13
-53.16
-46.68
-39.81
-34.00
-30.22
-28.56
-28.26
-28.06
-26.77
-23.73
-19.01
-13.24
-7.30
-1.89
2.71
6.67
10.46
14.40
18.54
22.46
25.59
27.39
27.67
26.71
25.02
23.13
21.29
19.41
17.11
14.09
10.26
5.86
1.32
-2.89
-6.51
-9.52
-12.07
-14.37
-16.52
-18.57
-20.42
-21.91
-22.91
-23.27
-22.90
-21.83
-20.20
-18.13
-15.70
-12.80
-9.31
-5.15
-0.52
4.11
8.21
11.34
13.43
14.68
15.40
15.75
15.61
14.69
12.80
10.01
6.66
3.30
0.32
-2.12
-4.12
-5.92
-7.62
-9.14
-10.26
-10.69
-10.17
-8.60
-5.94
-2.28
2.12
6.87
11.35
14.88
16.92
17.20
15.89
13.49
10.64
7.89
5.55
3.62
1.98
0.48
-0.94
-2.21
-3.28
-4.20
-5.24
-6.75
-9.10
-12.34
-16.11
-19.72
-22.23
-22.89
-21.36
-17.90
-13.16
-7.95
-2.99
1.36
4.93
7.73
9.68
10.62
10.39
9.00
6.72
4.07
1.63
-0.18
-1.22
-1.68
-1.91
-2.25
-2.90
-3.87
-5.10
-6.54
-8.27
-10.36
-12.81
-15.40
-17.64
-18.90
-18.64
-16.57
-12.83
-7.92
-2.54
2.54
6.75
9.73
11.39
11.78
11.14
9.70
7.75
5.57
3.45
1.63
0.29
-0.48
-0.77
-0.72
-0.59
-0.62
-1.07
-2.14
-3.94
-6.52
-9.87
-13.76
-17.69
-20.89
-22.47
-21.69
-18.30
-12.72
-5.90
1.02
7.10
11.85
15.21
17.33
18.37
18.41
17.52
15.88
13.85
11.83
10.16
8.92
8.04
7.38
6.80
6.25
5.65
4.89
3.79
2.13
-0.23
-3.35
-7.12
-11.24
-15.28
-18.64
-20.73
-21.09
-19.51
-16.11
-11.31
-5.73
-0.03
5.21
9.57
12.70
14.42
14.69
13.58
11.42
8.60
5.60
2.82
0.51
-1.28
-2.67
-3.91
-5.25
-6.88
-8.90
-11.36
-14.26
-17.57
-21.31
-25.56
-30.47
-36.19
-42.83
-50.19
-57.79
-64.80
-70.28
-73.49
-74.10
-72.29
-68.60
-63.58
-57.57
-50.53
-42.21
-32.38
-20.91
-7.86
6.58
22.28
39.10
56.81
75.07
93.33
110.94
127.31
141.98
154.71
165.28
173.50
179.06
181.66
181.16
177.72
171.78
163.94
154.71
144.26
132.46
119.12
104.38
88.98
74.27
61.76
52.61
47.24
45.24
45.64
47.35
49.57
51.79
53.80
55.41
56.31
56.16
54.60
51.43
46.60
40.26
32.71
24.46
16.17
8.64
2.69
-1.08
-2.37
-1.32
1.60
5.70
10.27
14.62
18.22
20.63
21.46
20.47
17.50
12.58
6.01
-1.67
-9.71
-17.30
-23.65
-28.27
-30.96
-31.91
-31.58
-30.56
-29.41
-28.53
-28.11
-28.17
-28.59
-29.15
-29.56
-29.49
-28.58
-26.50
-23.06
-18.20
-12.07
-5.00
2.54
9.95
16.63
22.02
25.72
27.54
27.54
26.03
23.47
20.32
16.88
13.20
9.11
4.38
-1.06
-6.98
-12.84
-18.00
-21.89
-24.30
-25.36
-25.57
-25.51
-25.72
-26.56
-28.07
-30.14
-32.49
-34.88
-37.07
-38.86
-40.08
-40.66
-40.63
-40.14
-39.47
-38.84
-38.31
-37.66
-36.42
-34.01
-30.06
-24.55
-17.91
-10.92
-4.34
1.25
5.65
8.92
11.21
12.64
13.33
13.62
14.17
16.00
20.03
26.67
35.54
45.58
55.54
64.48
72.02
78.10
82.70
85.43
85.74
83.34
78.60
72.59
66.60
61.63
57.95
55.30
53.27
51.79
51.21
51.94
53.93
56.44
58.21
58.00
55.20
49.89
42.68
34.13
24.49
13.66
1.49
-11.96
-26.39
-41.46
-56.95
-72.81
-88.78
-104.15
-117.38
-126.58
-130.06
-127.11
-118.32
-105.38
-90.52
-75.77
-62.50
-51.23
-41.88
-34.12
-27.57
-22.03
-17.42
-13.66
-10.58
-7.87
-5.14
-2.01
1.71
6.02
10.80
15.94
21.44
27.35
33.56
39.63
44.80
48.20
49.19
47.67
44.14
39.49
34.62
30.16
26.27
22.84
19.65
16.57
13.71
11.47
10.31
10.63
12.50
15.62
19.40
23.31
27.20
31.51
37.16
45.01
55.36
67.61
80.26
91.20
98.11
98.85
91.72
75.78
51.19
19.57
-15.97
-51.37
-82.64
-107.02
-123.58
-133.03
-136.82
-136.12
-131.24
-121.81
-107.39
-88.04
-64.58
-38.45
-11.39
14.83
38.45
57.76
71.32
78.31
78.86
74.06
65.61
55.20
43.99
32.39
20.16
6.73
-8.39
-25.27
-43.50
-62.11
-79.91
-95.70
-108.53
-117.80
-123.34
-125.33
-124.30
-121.09
-116.84
-112.71
-109.69
-108.20
-107.92
-107.93
-107.07
-104.47
-99.84
-93.39
-85.77
-77.56
-69.15
-60.57
-51.70
-42.40
-32.75
-23.10
-13.90
-5.63
1.39
7.02
11.28
14.15
15.71
16.07
15.50
14.47
13.55
13.11
13.19
13.26
12.45
9.91
5.21
-1.50
-9.50
-17.82
-25.58
-32.22
-37.46
-41.07
-42.83
-42.40
-39.57
-34.44
-27.53
-19.76
-12.19
-5.69
-0.77
2.51
4.35
5.02
4.75
3.64
1.82
-0.43
-2.67
-4.38
-5.18
-4.97
-4.01
-2.82
-1.91
-1.73
-2.44
-3.94
-5.94
-8.14
-10.33
-12.43
-14.36
-15.88
-16.57
-15.89
-13.42
-9.09
-3.31
3.14
9.28
14.25
17.54
18.88
18.24
15.58
10.93
4.45
-3.39
-11.82
-19.83
-26.42
-30.86
-32.88
-32.65
-30.66
-27.48
-23.65
-19.57
-15.69
-12.48
-10.41
-9.83
-10.79
-12.86
-15.20
-16.76
-16.65
-14.51
-10.56
-5.56
-0.39
4.12
7.43
9.38
10.00
9.43
7.83
5.36
2.26
-1.11
-4.31
-6.82
-8.20
-8.19
-6.74
-4.09
-0.70
2.78
5.69
7.44
7.54
5.67
1.71
-4.09
-11.00
-17.85
-23.24
-25.84
-24.81
-20.12
-12.51
-3.26
6.13
14.38
20.65
24.56
26.11
25.58
23.32
19.76
15.42
10.87
6.73
3.52
1.55
0.87
1.14
1.89
2.52
2.54
1.53
-0.80
-4.60
-9.88
-16.26
-22.93
-28.71
-32.26
-32.49
-28.99
-22.19
-13.19
-3.46
5.64
13.10
18.47
21.62
22.62
21.65
18.94
14.87
10.02
5.08
0.76
-2.43
-4.28
-4.91
-4.68
-4.10
-3.71
-3.95
-5.23
-7.78
-11.66
-16.56
-21.83
-26.41
-29.11
-28.88
-25.19
-18.21
-8.76
1.83
12.14
20.93
27.35
31.03
32.02
30.68
27.59
23.43
18.86
14.48
10.71
7.75
5.61
4.14
3.06
2.08
0.89
-0.79
-3.17
-6.46
-10.79
-16.04
-21.77
-27.01
-30.50
-31.02
-27.79
-20.84
-11.11
-0.13
10.40
19.07
25.06
28.09
28.34
26.32
22.66
18.12
13.44
9.24
5.91
3.59
2.19
1.48
1.19
1.06
0.83
0.21
-1.14
-3.49
-7.03
-11.69
-17.10
-22.47
-26.78
-28.92
-27.97
-23.59
-16.08
-6.46
3.82
13.23
20.55
25.09
26.78
25.96
23.24
19.30
14.78
10.22
6.10
2.79
0.52
-0.71
-1.14
-1.15
-1.22
-1.75
-3.09
-5.46
-9.04
-13.91
-19.86
-26.26
-32.06
-35.96
-36.82
-34.04
-27.84
-19.25
-9.79
-0.99
5.94
10.36
12.19
11.69
9.43
6.08
2.39
-0.87
-3.07
-3.84
-3.21
-1.51
0.68
2.79
4.34
5.03
4.68
3.17
0.37
-3.74
-8.99
-14.78
-20.10
-23.72
-24.40
-21.37
-14.57
-4.68
6.98
18.88
29.55
37.99
43.62
46.37
46.54
44.67
41.49
37.86
34.61
32.45
31.75
32.48
34.24
36.39
38.28
39.39
39.43
38.27
35.85
32.05
26.75
20.05
12.45
5.02
-0.80
-3.55
-2.30
3.06
11.72
22.21
32.84
42.16
49.16
53.40
54.83
53.69
50.42
45.63
40.11
34.68
30.04
26.64
24.64
23.85
23.96
24.62
25.57
26.70
27.91
29.08
29.86
29.75
28.09
24.34
18.40
10.73
2.41
-5.15
-10.58
-13.08
-12.59
-9.77
-5.73
-1.57
1.87
4.20
5.34
5.42
4.60
3.02
0.87
-1.60
-4.10
-6.32
-8.02
-9.10
-9.61
-9.63
-9.28
-8.67
-7.97
-7.40
-7.31
-8.08
-9.98
-13.07
-16.96
-20.94
-23.93
-24.80
-22.65
-17.04
-8.18
3.13
15.68
28.14
39.27
48.12
54.11
57.02
57.14
55.10
51.84
48.32
45.27
43.04
41.55
40.43
39.27
37.85
36.12
34.23
32.32
30.47
28.63
26.71
24.49
21.76
18.38
14.33
9.89
5.68
2.55
1.29
2.45
6.04
11.57
18.20
24.99
31.13
36.03
39.29
40.61
39.86
37.06
32.47
26.57
19.95
13.17
6.67
0.69
-4.68
-9.48
-13.73
-17.43
-20.48
-22.74
-24.04
-24.37
-23.91
-23.11
-22.48
-22.48
-23.19
-24.18
-24.66
-23.76
-20.85
-15.88
-9.27
-1.78
5.81
12.91
19.28
24.86
29.69
33.79
37.14
39.74
41.70
43.13
44.09
44.53
44.36
43.43
41.74
39.46
36.92
34.50
32.51
31.00
29.79
28.40
26.21
22.62
17.29
10.36
2.50
-5.21
-11.58
-15.66
-17.07
-16.00
-13.13
-9.35
-5.49
-2.20
0.10
1.23
1.16
0.01
-2.01
-4.62
-7.51
-10.36
-12.81
-14.55
-15.29
-14.85
-13.26
-10.67
-7.41
-3.87
-0.53
2.05
3.25
2.51
-0.54
-5.80
-12.55
-19.53
-25.11
-27.78
-26.47
-20.88
-11.54
0.32
13.03
24.79
34.01
39.56
40.93
38.29
32.35
24.20
15.13
6.34
-1.22
-6.94
-10.66
-12.46
-12.69
-11.76
-10.09
-8.17
-6.47
-5.52
-5.71
-7.20
-9.77
-12.92
-15.96
-18.36
-19.83
-20.36
-20.07
-19.13
-17.65
-15.81
-13.93
-12.51
-12.13
-13.26
-15.89
-19.51
-23.12
-25.65
-26.33
-24.98
-22.07
-18.45
-15.01
-12.31
-10.43
-9.08
-7.75
-5.97
-3.43
-0.06
4.09
8.91
14.29
20.19
26.63
33.65
41.21
49.03
56.70
63.70
69.63
74.36
78.09
81.18
83.93
86.50
88.91
91.18
93.62
96.79
101.37
107.90
116.53
127.22
139.78
154.08
170.07
187.46
205.65
223.69
240.70
256.26
270.50
283.67
295.38
304.14
307.69
304.06
292.72
275.29
255.10
235.87
220.25
208.89
200.58
193.20
184.92
174.97
163.69
152.06
141.02
130.99
121.73
112.43
102.05
89.83
75.70
60.34
45.13
31.52
20.41
11.62
3.77
-5.23
-17.31
-33.27
-52.33
-72.19
-90.12
-103.97
-113.16
-118.75
-122.94
-128.12
-136.26
-148.87
-166.68
-188.86
-211.76
-228.33
-229.61
-208.27
-162.71
-99.46
-31.83
24.94
59.74
69.62
59.66
39.22
16.84
-3.07
-20.43
-37.26
-54.94
-72.94
-89.47
-103.07
-113.80
-123.26
-133.75
-146.96
-163.31
-181.80
-200.64
-218.05
-232.99
-245.48
-256.64
-268.10
-281.59
-298.33
-318.70
-342.73
-370.59
-403.20
-441.90
-487.24
-537.22
-586.41
-626.78
-650.40
-652.71
-634.38
-600.82
-559.44
-516.31
-474.15
-432.69
-390.58
-347.51
-305.08
-265.87
-231.87
-203.32
-178.85
-156.65
-135.74
-116.45
-99.92
-87.27
-78.49
-72.43
-67.07
-60.39
-51.24
-39.69
-26.90
-14.57
-4.13
3.83
9.67
14.35
18.78
23.38
27.88
31.56
33.84
34.70
34.94
35.91
38.92
44.69
53.10
63.27
74.10
85.09
96.54
109.45
125.09
144.52
168.27
196.96
231.67
273.72
323.44
378.98
436.13
489.63
535.25
571.22
598.08
616.95
627.63
628.05
615.49
588.86
550.20
504.33
456.79
411.41
369.19
329.08
289.68
250.71
213.09
177.90
145.02
113.10
80.15
44.63
6.51
-32.61
-70.16
-103.79
-132.30
-156.12
-177.26
-198.95
-225.11
-259.37
-303.75
-357.36
-415.68
-471.36
-516.52
-545.96
-559.32
-561.36
-559.79
-561.83
-571.55
-588.76
-610.25
-631.74
-649.75
-661.91
-666.53
-661.64
-644.94
-614.53
-569.92
-512.83
-446.95
-377.27
-308.60
-244.65
-187.42
-137.38
-94.07
-56.82
-25.27
0.59
20.73
35.52
45.97
53.74
60.64
68.21
77.21
87.57
98.57
109.40
119.54
129.07
138.56
148.72
159.90
171.98
184.29
196.02
206.67
216.34
225.80
236.16
248.35
262.71
278.88
295.99
313.05
329.50
345.46
361.65
379.27
399.74
424.37
453.88
487.61
523.05
555.80
580.59
592.82
590.23
573.79
547.20
515.48
483.09
452.74
425.30
400.46
377.78
357.26
339.24
323.79
310.31
297.28
282.64
264.28
240.59
210.88
175.61
136.30
95.26
55.23
18.71
-12.52
-37.77
-57.33
-72.15
-83.15
-90.89
-95.37
-96.29
-93.44
-86.98
-77.46
-65.57
-51.89
-36.76
-20.37
-2.91
15.27
33.64
51.64
68.81
84.91
99.90
113.84
126.67
138.02
147.15
152.92
154.08
149.67
139.30
123.35
102.92
79.53
54.84
30.48
7.98
-11.30
-26.21
-36.27
-41.97
-44.96
-47.82
-53.39
-63.85
-80.04
-101.18
-125.21
-149.42
-171.10
-188.07
-198.79
-202.52
-199.22
-189.66
-175.27
-157.99
-139.90
-122.75
-107.70
-95.21
-85.01
-76.35
-68.18
-59.53
-49.76
-38.96
-28.02
-18.40
-11.63
-8.64
-9.36
-12.71
-17.08
-20.93
-23.43
-24.59
-25.15
-26.00
-27.72
-30.07
-31.89
-31.27
-26.15
-15.12
1.95
23.57
47.01
69.15
87.45
100.60
108.57
112.19
112.47
110.16
105.64
99.15
90.91
81.32
70.80
59.58
47.53
34.10
18.48
-0.25
-22.83
-49.72
-81.06
-116.49
-155.05
-195.01
-233.85
-268.40
-295.38
-312.30
-318.09
-313.60
-301.36
-284.77
-267.15
-250.88
-237.10
-225.98
-217.20
-210.45
-205.54
-202.23
-199.90
-197.33
-192.96
-185.34
-173.80
-158.72
-141.46
-123.95
-108.11
-95.52
-87.26
-83.99
-86.12
-93.74
-106.54
-123.54
-143.08
-162.95
-180.82
-194.68
-203.15
-205.61
-202.14
-193.31
-180.04
-163.57
-145.48
-127.52
-111.33
-98.01
-87.59
-79.02
-70.51
-60.22
-47.00
-30.79
-12.51
6.38
24.52
41.00
55.35
67.42
77.19
84.64
89.85
93.15
95.06
96.22
97.20
98.25
99.31
100.01
99.87
98.47
95.60
91.35
86.06
80.30
74.61
69.52
65.31
62.09
59.79
58.30
57.56
57.56
58.35
59.85
61.87
64.05
65.94
67.13
67.30
66.31
64.16
61.03
57.13
52.71
48.02
43.24
38.56
34.12
30.01
26.33
23.04
20.03
17.09
13.96
10.43
6.43
2.10
-2.12
-5.61
-7.67
-7.78
-5.85
-2.25
2.34
7.10
11.36
14.67
16.86
17.86
17.71
16.48
14.34
11.61
8.73
6.15
4.26
3.27
3.13
3.64
4.46
5.16
5.35
4.74
3.17
0.67
-2.55
-6.11
-9.45
-11.88
-12.74
-11.58
-8.29
-3.25
2.79
8.83
13.93
17.44
19.12
19.14
17.92
15.96
13.68
11.37
9.21
7.31
5.78
4.68
4.02
3.72
3.57
3.30
2.65
1.47
-0.31
-2.66
-5.45
-8.46
-11.29
-13.42
-14.23
-13.18
-10.04
-4.94
1.50
8.45
15.00
20.45
24.42
26.80
27.72
27.39
26.09
24.17
22.03
20.04
18.42
17.25
16.42
15.75
15.07
14.28
13.34
12.20
10.73
8.75
6.04
2.50
-1.71
-6.18
-10.20
-12.97
-13.74
-12.12
-8.21
-2.60
3.78
9.96
15.19
19.03
21.39
22.40
22.30
21.34
19.82
18.06
16.37
15.00
14.09
13.58
13.32
13.10
12.70
12.02
11.01
9.65
7.89
5.65
2.81
-0.63
-4.51
-8.38
-11.56
-13.27
-12.88
-10.12
-5.26
1.05
7.92
14.50
20.10
24.28
26.85
27.79
27.29
25.65
23.39
21.11
19.31
18.29
18.05
18.37
